,,1,2,3,4,5,6,7,8,9,10,11,12,13,14,15,16,17,18,19,20,21,22,23,24,25,26,27,28,29,30,31,32,33,34,35,36,37,38,39,40,41,42,43,44,45,46,47,48,49,50,51,52,53,54,55,56,57,58,59,60,61,62,63,64,65,66,67,68,69,70,71,72,73,74,75,76,77,78,79,80,81,82,83,84,85,86,87,88,89,90,91,92,93,94,95,96,97,98,99,100,101,102,103,104,105,106,107,108,109,110,111,112,113,114,115,116,117,118,119,120,121,122,123,124,125,126,127,128,129,130,131,132,133,134,135,136,137,138,139,140,141,142,143,144,145,146,147,148,149,150,151,152,153,154,155,156,157,158,159,160,161,162,163,164,165,166,167,168,169,170,171,172,173,174,175,176,177,178,179,180,181,182,183,184,185,186,187,188,189,190,191,192,193,194,195,196,197,198,199,200,201,202,203,204,205,206,207,208,209,210,211,212,213,214,215,216,217,218,219,220,221,222,223,224,225,226,227,228,229,230,231,232,233,234,235,236,237,238,239,240,241,242,243,244,245,246,247,248,249,250,251,252,253,254,255,256,257,258,259,260,261,262,263,264,265,266,267,268,269,270,271,272,273,274,275,276,277,278,279,280,281,282,283,284,285,286,287,288,289,290,291,292,293,294,295,296,297,298,299,300,301,302,303,304,305,306,307,308,309,310,311,312,313,314,315,316,317,318,319,320,321,322,323,324,325,326,327,328,329,330,331,332,333,334,335,336,337,338,339,340,341,342,343,344,345,346,347,348,349,350,351,352,353,354,355,356,357,358,359,360,361,362,363,364,365,366,367,368,369,370,371,372,373,374,375,376,377,378,379,380,381,382,383,384,385,386,387,388,389,390,391,392,393,394,395,396,397,398,399,400,401,402,403,404,405,406,407,408,409,410,411,412,413,414,415,416,417,418,419,420,421,422,423,424,425,426,427,428,429,430,431,432,433,434,435,436,437,438,439,440,441,442,443,444,445,446,447,448,449,450,451,452,453,454,455,456,457,458,459,460,461,462,463,464,465,466,467,468,469,470,471,472,473,474,475,476,477,478,479,480,481,482,483,484,485,486,487,488,489,490,491,492,493,494,495,496,497,498,499,500,501,502,503,504,505,506,507,508,509,510,511,512,513,514,515,516,517,518,519,520,521,522,523,524,525,526,527,528,529,530,531,532,533,534,535,536,537,538,539,540,541,542,543,544,545,546,547,548,549,550,551,552,553,554,555,556,557,558,559,560,561,562,563,564,565,566,567,568,569,570,571,572,573,574,575,576,577,578,579,580,581,582,583,584,585,586,587,588,589,590,591,592,593,594,595,596,597,598,599,600,601,602,603,604,605,606,607,608,609,610,611,612,613,614,615,616,617,618,619,620,621,622,623,624,625,626,627,628,629,630,631,632,633,634,635,636,637,638,639,640,641,642,643,644,645,646,647,648,649,650,651,652,653,654,655,656,657,658,659,660,661,662,663,664,665,666,667,668,669,670,671,672,673,674,675,676,677,678,679,680,681,682,683,684,685,686,687,688,689,690,691,692,693,694,695,696,697,698,699,700,701,702,703,704,705,706,707,708,709,710,711,712,713,714,715,716,717,718,719,720,721,722,723,724,725,726,727,728,729,730,731,732,733,734,735,736,737,738,739,740,741,742,743,744,745,746,747,748,749,750,751,752,753,754,755,756,757,758,759,760,761,762,763,764,765,766,767,768,769,770,771,772,773,774,775,776,777,778,779,780,781,782,783,784,785,786,787,788,789,790,791,792,793,794,795,796,797,798,799,800,801,802,803,804,805,806,807,808,809,810,811,812,813,814,815,816,817,818,819,820,821,822,823,824,825,826,827,828,829,830,831,832,833,834,835,836,837,838,839,840,841,842,843,844,845,846,847,848,849,850,851,852,853,854,855,856,857,858,859,860,861,862,863,864,865,866,867,868,869,870,871,872,873,874,875,876,877,878,879,880,881,882,883,884,885,886,887,888,889,890,891,892,893,894,895,896,897,898,899,900,901,902,903,904,905,906,907,908,909,910,911,912,913,914,915,916,917,918,919,920,921,922,923,924,925,926,927,928,929,930,931,932,933,934,935,936,937,938,939,940,941,942,943,944,945,946,947,948,949,950,951,952,953,954,955,956,957,958,959,960,961,962,963,964,965,966,967,968,969,970,971,972,973,974,975,976,977,978,979,980,981,982,983,984,985,986,987,988,989,990,991,992,993,994,995,996,997,998,999,1000,1001,0
Person_01,0,ECG_ECG_1,21.72810527,-0.210206116,13.81719916,0.240768381,9.930746386,11.69285713,0.996308118,1.325308861,-0.408697678,1.321694843,0.946536686,0.784798582,-0.162118808,1.178018586,1.797699297,2.015024965,2.276193965,2.287745166,1.996446603,3.62124668,1.898145331,3.121425775,2.206595998,0.817342908,0.883201414,0.228616472,0.628068464,0.122890436,0.978393096,0.412359335,1.341329087,0.838488034,0.930646718,1.892783647,1.050496546,1.047183143,0.358616298,0.688534363,1.084932824,0.985661858,-0.02416075,0.426271318,0.22416752,0.978406984,0.431171249,0.19966324,0.395530977,0.965406139,1.092585613,0.604162447,0.501267051,0.703445486,0.937331272,0.570059072,0.580091858,0.581793481,0.790046963,0.303293081,0.434671011,0.507039555,0.569773917,0.620859975,0.111223982,0.396350693,0.640272397,0.351586305,0.387285195,0.12380833,0.288347733,0.550659086,0.083517001,0.272599805,0.146565639,0.358008834,0.273308809,0.172626467,0.050651788,0.32446171,0.179784345,0.215439262,0.126289832,0.050967476,0.255383673,0.016694415,0.191616493,-0.024790872,0.033955172,-0.000186821,-0.012033686,0.056522447,-0.085643488,-0.045018748,-0.104338698,-0.051072953,-0.040216215,-0.121686778,-0.114131874,-0.114779755,-0.092034088,-0.089510241,-0.153319427,-0.127107665,-0.136573702,-0.110975308,-0.14262451,-0.139465673,-0.147490603,-0.134624846,-0.142740192,-0.139984342,-0.147717133,-0.139210091,-0.146035528,-0.138285985,-0.146447846,-0.137594173,-0.145516768,-0.13668525,-0.144583481,-0.135854609,-0.143753772,-0.135100403,-0.142992911,-0.134383876,-0.142272592,-0.133721426,-0.141560307,-0.133044325,-0.140837166,-0.132064365,-0.140568197,-0.131223799,-0.139327862,-0.130581202,-0.137973302,-0.130806807,-0.136645858,-0.129565792,-0.136531566,-0.127928989,-0.13555094,-0.125581568,-0.136328295,-0.126172247,-0.13499047,-0.123454395,-0.135501344,-0.126251846,-0.136217546,-0.125701498,-0.132235331,-0.127222546,-0.135036985,-0.124596331,-0.135578578,-0.12275502,-0.135567298,-0.12575319,-0.134062711,-0.124413966,-0.132859302,-0.124390381,-0.133471905,-0.123882166,-0.134353793,-0.121404564,-0.134014443,-0.123714595,-0.134599509,-0.12168991,-0.132653932,-0.121606036,-0.134366885,-0.12368587,-0.13458052,-0.120959279,-0.135695206,-0.120630247,-0.136323811,-0.12067226,-0.136028693,-0.11917539,-0.136306912,-0.117256497,-0.136778209,-0.116546873,-0.137559171,-0.114183704,-0.137809871,-0.111397943,-0.138727939,-0.108040112,-0.139243263,-0.102021777,-0.141320866,-0.093340093,-0.144448326,-0.078483422,-0.15228442,-0.03352704,-0.180491473,0.540607181,0.014723731,-0.264797282,-0.101551593,-0.19151493,-0.113425266,-0.169114857,-0.119497458,-0.158789619,-0.121412704,-0.152558682,-0.123344557,-0.148556623,-0.124268894,-0.144817735,-0.125169151,-0.142839957,-0.124417003,-0.141072741,-0.124410737,-0.137339724,-0.124995552,-0.137273848,-0.127272536,-0.136006061,-0.126153025,-0.135219672,-0.126907673,-0.136287227,-0.127297654,-0.134892914,-0.125779924,-0.135346019,-0.127189748,-0.134077036,-0.125779807,-0.133349391,-0.12577971,-0.13014796,-0.125068989,-0.132840537,-0.126042927,-0.131313745,-0.124992067,-0.132295332,-0.127600886,-0.132263596,-0.124297698,-0.129902111,-0.125394887,-0.13275947,-0.126309698,-0.129585318,-0.12630457,-0.129356531,-0.128061936,-0.129199507,-0.125595758,-0.127498038,-0.125482191,-0.1283828,-0.125650488,-0.128132932,-0.126277463,-0.129569199,-0.124897546,-0.133055151,-0.126688934,-0.128369784,-0.124677721,-0.131415451,-0.126819911,-0.131266765,-0.125503197,-0.129307909,-0.126007563,-0.130109389,-0.125405413,-0.127714942,-0.128489733,-0.128134733,-0.127940843,-0.128695665,-0.126225501,-0.131407901,-0.127669298,-0.129072291,-0.127311418,-0.125686572,-0.129221565,-0.129590787,-0.127851832,-0.129064605,-0.124222681,-0.13337889,-0.126690923,-0.131156787,-0.128284281,-0.128813552,-0.128284084,-0.13139166,-0.128758825,-0.129457326,-0.128451772,-0.129821765,-0.130324823,-0.130103749,-0.129379567,-0.130569589,-0.128597996,-0.131346877,-0.129150753,-0.130111118,-0.128758316,-0.130782682,-0.129174838,-0.130844677,-0.128934766,-0.130948951,-0.12985758,-0.131167391,-0.129353949,-0.130623855,-0.128590955,-0.13104688,-0.12915266,-0.130932355,-0.129564289,-0.130677918,-0.129146631,-0.131250336,-0.129291567,-0.131124628,-0.129561851,-0.130629589,-0.128735684,-0.130807019,-0.129510217,-0.130324555,-0.129312655,-0.130261963,-0.129587898,-0.130262067,-0.12903014,-0.129934519,-0.1290328,-0.130333356,-0.129753985,-0.13078733,-0.129452932,-0.130543508,-0.129098564,-0.130168282,-0.129509486,-0.130185394,-0.129594188,-0.130358087,-0.129590255,-0.130011802,-0.128731915,-0.129947503,-0.129726928,-0.129939156,-0.129015042,-0.130440384,-0.129315407,-0.129869975,-0.129378877,-0.129969245,-0.128769488,-0.129936081,-0.129133929,-0.130270765,-0.129400991,-0.130183396,-0.129214955,-0.129538875,-0.129071869,-0.130127777,-0.129254916,-0.130084741,-0.128897354,-0.129718395,-0.128669948,-0.130129063,-0.128955293,-0.129956788,-0.129132387,-0.129974751,-0.12892605,-0.129634664,-0.129124608,-0.129791492,-0.128891548,-0.129450778,-0.128705309,-0.130164042,-0.129030787,-0.129835884,-0.128718483,-0.129352458,-0.129470757,-0.129979907,-0.128948558,-0.129389268,-0.129033029,-0.129602588,-0.12856471,-0.129416497,-0.129372944,-0.129390665,-0.129096477,-0.129608625,-0.128918512,-0.128946248,-0.129148175,-0.129368475,-0.129381725,-0.12979291,-0.129185989,-0.129297872,-0.128754389,-0.129819889,-0.128990259,-0.129298791,-0.129122457,-0.129603852,-0.12897414,-0.12961975,-0.129165877,-0.129681594,-0.128882734,-0.129771559,-0.128167836,-0.129393153,-0.129199877,-0.12950293,-0.128889084,-0.129469894,-0.129139753,-0.129534374,-0.128721707,-0.129033235,-0.129128264,-0.129336326,-0.128862776,-0.129563315,-0.128711565,-0.129120027,-0.128993405,-0.129129279,-0.129414822,-0.12933511,-0.129272903,-0.12935751,-0.128953591,-0.129335516,-0.129051583,-0.129095308,-0.129043133,-0.129257776,-0.128969759,-0.129308973,-0.128841543,-0.129726072,-0.129297189,-0.129517853,-0.128866849,-0.129358516,-0.129221999,-0.129383478,-0.129017807,-0.129013737,-0.128902622,-0.129290216,-0.128368696,-0.12922008,-0.128918068,-0.129180959,-0.128988744,-0.129159244,-0.129073767,-0.129150905,-0.12895444,-0.129243905,-0.128878655,-0.129194042,-0.129119157,-0.129632383,-0.129020532,-0.129362338,-0.129104538,-0.129363941,-0.129094645,-0.129564405,-0.129019809,-0.12940611,-0.128921106,-0.129263679,-0.128716798,-0.129087194,-0.129240337,-0.129066502,-0.128965815,-0.129111747,-0.129014396,-0.129232011,-0.129194288,-0.129012607,-0.129027954,-0.129238005,-0.129156597,-0.129357979,-0.129166219,-0.129244642,-0.128799656,-0.129066407,-0.128407655,-0.129395453,-0.129022241,-0.129281426,-0.128842726,-0.129172528,-0.12910873,-0.129223376,-0.128960835,-0.129101353,-0.128943789,-0.129143651,-0.12875115,-0.129162302,-0.129083449,-0.129187369,-0.129123394,-0.129068122,-0.129094845,-0.129030361,-0.128857479,-0.128859951,-0.128929225,-0.129091125,-0.129020789,-0.128880626,-0.128800574,-0.128876083,-0.129117445,-0.129086022,-0.129164928,-0.129172431,-0.128977096,-0.128785909,-0.128713561,-0.128859711,-0.128954676,-0.128871631,-0.128893264,-0.128854849,-0.128411575,-0.128821188,-0.128928429,-0.128837425,-0.129162855,-0.128819969,-0.128811607,-0.12873325,-0.129076118,-0.128818009,-0.129038785,-0.128643787,-0.128868724,-0.129015597,-0.128810752,-0.128434304,-0.12847258,-0.129014753,-0.128893218,-0.128827773,-0.129071261,-0.128736478,-0.128668097,-0.128788418,-0.128723605,-0.128502817,-0.128661312,-0.128426331,-0.129099148,-0.128527762,-0.129020182,-0.128349259,-0.12865406,-0.128109368,-0.1290191,-0.127716055,-0.128991764,-0.127657733,-0.129040794,-0.127629049,-0.128885098,-0.126793689,-0.128492754,-0.125157077,-0.128565392,-0.11717457,-0.113963311,-0.141058082,-0.129065989,-0.133330185,-0.129495242,-0.131427177,-0.129322357,-0.130979692,-0.129217495,-0.130420336,-0.129107659,-0.130147881,-0.129281058,-0.129868137,-0.12881567,-0.130240029,-0.12929983,-0.129978732,-0.129115906,-0.129800332,-0.129003599,-0.129838496,-0.129193344,-0.129837492,-0.128953531,-0.129482116,-0.129124602,-0.129480024,-0.129006819,-0.129582595,-0.12910149,-0.129584673,-0.128978448,-0.129372186,-0.128948647,-0.129413896,-0.129048492,-0.129422382,-0.128994777,-0.12939672,-0.129000757,-0.129324695,-0.129042186,-0.129362847,-0.129079912,-0.129410788,-0.128967606,-0.129381827,-0.128957658,-0.129210674,-0.128970678,-0.129409918,-0.128955966,-0.129266654,-0.128781135,-0.129403313,-0.128742446,-0.129409792,-0.12849753,-0.129078419,-0.129059303,-0.129464807,-0.129060257,-0.129244099,-0.129036944,-0.129345226,-0.128944243,-0.129273311,-0.12880126,-0.129196201,-0.128813001,-0.129312814,-0.128934686,-0.129402574,-0.128903635,-0.129175512,-0.128786755,-0.129175344,-0.129103964,-0.129114682,-0.129054258,-0.129014637,-0.129136242,-0.129269936,-0.12894677,-0.129109519,-0.129025166,-0.128967721,-0.129035769,-0.129354194,-0.129003397,-0.129026353,-0.128747304,-0.129177094,-0.128921093,-0.129025477,-0.129131416,-0.129069655,-0.128997427,-0.129103053,-0.128992311,-0.128962058,-0.128868771,-0.129178065,-0.128780591,-0.129357971,-0.128734477,-0.129127468,-0.129058267,-0.128948219,-0.1289953,-0.129119803,-0.128828551,-0.129399112,-0.128843528,-0.129154586,-0.128861459,-0.129043096,-0.129199158,-0.129084622,-0.129062545,-0.129084436,-0.128944147,-0.129243158,-0.128877117,-0.12930052,-0.128940964,-0.129045882,-0.128971966,-0.129316304,-0.128937357,-0.129158732,-0.128972733,-0.129137604,-0.12881868,-0.129095403,-0.128702261,-0.129049947,-0.128812589,-0.129109049,-0.129007708,-0.128915316,-0.128990162,-0.129287085,-0.128999302,-0.129014348,-0.128853032,-0.129138994,-0.128604811,-0.129052373,-0.129235431,-0.129186123,-0.12920241,-0.129122457,-0.129106959,-0.129034637,-0.129090493,-0.129078284,-0.129030518,-0.129054797,-0.128941915,-0.128958575,-0.128993648,-0.128911647,-0.128872508,-0.129016707,-0.128822334,-0.129095235,-0.128833939,-0.129085744,-0.128846658,-0.128906355,-0.128780246,-0.128775378,-0.128883548,-0.128907576,-0.128668914,-0.128911518,-0.128922686,-0.129184443,-0.129023353,-0.129009686,-0.128929621,-0.128475603,-0.12893714,-0.129256542,-0.128893923,-0.12913357,-0.128845378,-0.129138277,-0.129033382,-0.128933907,-0.12881381,-0.129108361,-0.128923428,-0.129132938,-0.129063294,-0.129043435,-0.128873464,-0.128980225,-0.128965869,-0.128970867,-0.128940865,-0.128998136,-0.128908711,-0.128801564,-0.12874521,-0.129145713,-0.12881339,-0.129066117,-0.129060607,-0.12887812,-0.128963268,-0.129087063,-0.128893346,-0.129207139,-0.128879355,-0.128923007,-0.128876844,-0.128942033,-0.128950547,-0.129008967,-0.12887942,-0.128880775,-0.128899159,-0.129084917,-0.128781281,-0.128803006,-0.128796672,-0.129304524,-0.129049455,-0.129051868,-0.128774411,-0.128927141,-0.128765273,-0.128970952,-0.129117567,-0.129154492,-0.128984766,-0.129084682,-0.129072573,-0.129004772,-0.1288781,-0.128933678,-0.129001829,-0.128906224,-0.1290088,-0.128954275,-0.128894662,-0.12900264,-0.128926514,-0.129092485,-0.128840682,-0.128888725,-0.128953836,-0.128886579,-0.12885116,-0.12901466,-0.128660938,-0.129273009,-0.129025544,-0.129031178,-0.128986296,-0.129128236,-0.128962613,-0.129012991,-0.128904626,-0.12899252,-0.12899061,-0.129204016,-0.128881471,-0.129033517,-0.128787119,-0.129158744,-0.128855205,-0.128988034,-0.128947127,-0.128946547,-0.128914457,-0.129122085,-0.128807904,-0.128924422,-0.128690499,-0.12887293,-0.128893509,-0.12892694,-0.12895224,-0.128990432,-0.128883597,-0.129032476,-0.128930679,-0.128838601,-0.128895843,-0.12886288,-0.128953088,-0.1291125,-0.12889767,-0.12894542,-0.128833233,-0.12895188,-0.128828978,-0.128747138,-0.128821808,-0.128885429,-0.129161769,-0.129017441,-0.128981784,-0.128793454,-0.129043504,-0.128921102,-0.129094088,-0.129048481,-0.128970844,-0.128810597,-0.128973882,-0.128981287,-0.128896536,-0.129041197,-0.128875898,-0.129040576,-0.128798446,-0.128933353,-0.12884078,-0.128794389,-0.128767873,-0.128974957,-0.12887397,-0.128994192,-0.128855105,-0.128926307,-0.128573693,-0.128681268,-0.12905546,-0.128792938,-0.128856255,-0.128863032,-0.128831844,-0.129121298,-0.129189343,-0.129119736,-0.129030777,-0.12899545,-0.128958369,-0.129009358,-0.128913853,-0.128852975,-0.128841776,-0.128872183,-0.128837477,-0.129150526,-0.128955842,-0.128988593,-0.128993168,-0.129003271,-0.128757915,-0.128977587,-0.128826676,-0.128953503,-0.128924193,-0.128932747,-0.128934053,-0.129041202,-0.128813108,-0.12899648,-0.129018222,-0.128930615,-0.128907413,-0.128967435,-0.128847318,-0.128740528,-0.128985443,-0.12886853,-0.128849165,-0.128822247,-0.128628521,-0.12895878,-0.12885748,-0.128929316,-0.128937337,-0.128973958,-0.128815161,-0.12891333,-0.128811616,-0.128713121,-0.128611724,-0.128751746,-0.128936697,-0.128885781,-0.128579658,-0.128434166,-0.129541627,-0.12896795,-0.129039517,-0.128926922,-0.129131831,-0.1288428,Person_01
,1,ECG_ECG_2,11.77759886,2.107500943,0.685180809,-0.904224032,4.206859772,19.55981232,1.906567315,-0.019333071,-0.033547317,0.891749588,1.816827105,0.970401659,0.475457983,-0.20944021,4.244805869,2.686791122,4.506893519,2.26019468,2.663040327,8.575963161,3.503487487,3.242135167,2.745446018,2.396160313,1.227512875,0.489834478,0.093852769,0.56648701,1.53526472,1.267020611,1.168403238,0.936733721,1.207766668,4.050130719,2.020983962,0.929360653,0.745752441,1.05570825,1.796769353,1.724263874,0.234522879,0.498317074,0.631349756,1.071967297,1.232041427,0.529554123,0.597929999,1.237503667,1.239298147,1.553513582,0.995298463,1.136546459,1.087227301,1.404806192,0.594264853,1.021451664,0.938032351,0.815982716,0.990292001,0.137798429,1.061001699,0.842320997,0.643808553,0.720142983,0.052002568,0.963392257,0.43155549,0.759641508,0.312384482,0.290874812,0.68279541,0.380162288,0.467877342,0.265064084,0.419190442,0.354977422,0.423370978,0.248634658,0.173064119,0.550984019,0.103411908,0.581922121,-0.103246587,0.175442307,0.269120528,0.140858116,0.165190808,-0.066743559,-0.068130809,0.06312312,0.036421269,-0.001143246,-0.139591718,-0.073864551,-0.122990062,0.044421105,-0.149511959,-0.084600197,-0.181334563,-0.081301086,-0.127951601,-0.091485964,-0.184600326,-0.114966743,-0.182945312,-0.111749862,-0.192260828,-0.121592798,-0.197077366,-0.120710731,-0.199752446,-0.120758205,-0.198541145,-0.118677747,-0.198029238,-0.116928308,-0.197140101,-0.114504814,-0.196193059,-0.112136757,-0.195345874,-0.109838176,-0.194615546,-0.107544742,-0.193951124,-0.105294658,-0.193322788,-0.102872869,-0.192372058,-0.100541304,-0.192128851,-0.097727267,-0.191402299,-0.093837209,-0.190059983,-0.092280661,-0.189700008,-0.088871548,-0.186602786,-0.086777604,-0.189193596,-0.082406739,-0.187867456,-0.079898231,-0.18532631,-0.076255066,-0.186006631,-0.0743645,-0.187200586,-0.070706128,-0.187322559,-0.068570891,-0.190108069,-0.063346934,-0.189070702,-0.060647245,-0.191937894,-0.055186039,-0.19086292,-0.050484655,-0.186505766,-0.043195892,-0.193220665,-0.040307896,-0.188909054,-0.028808486,-0.196768955,-0.024413459,-0.197220385,-0.021603329,-0.19883952,-0.011659543,-0.200575663,-0.001490616,-0.200609183,0.010052147,-0.211090138,0.022077494,-0.212019543,0.034213927,-0.215903874,0.052879653,-0.223500299,0.076956728,-0.226731064,0.103743118,-0.238667547,0.141288913,-0.242051081,0.191249923,-0.261266842,0.248807464,-0.27865034,0.340055402,-0.306943772,0.499582451,-0.365534847,0.800181069,-0.479152913,1.617192855,-0.891044203,13.08700127,2.066257864,-2.529919369,0.312631819,-1.240026471,0.096265326,-0.85626506,0.019577059,-0.6760051,-0.016736828,-0.560094563,-0.051898488,-0.489853633,-0.061883109,-0.438164391,-0.083163055,-0.398862439,-0.087903657,-0.369170344,-0.088301662,-0.344510321,-0.107470724,-0.327182715,-0.106643936,-0.312566576,-0.110805286,-0.294419031,-0.108669117,-0.293324536,-0.112526743,-0.280797142,-0.114706841,-0.269864217,-0.116009237,-0.26487364,-0.119749565,-0.254928142,-0.1234782,-0.249271295,-0.121345193,-0.239414479,-0.117900416,-0.233584171,-0.13190498,-0.233390076,-0.13101025,-0.230108245,-0.133460404,-0.2267781,-0.131019909,-0.219400706,-0.135888781,-0.221314161,-0.127806586,-0.209669733,-0.134932572,-0.217410402,-0.133902487,-0.20940762,-0.123435568,-0.206497262,-0.141817575,-0.210803495,-0.14223101,-0.209553187,-0.134524972,-0.201042593,-0.140410045,-0.196145655,-0.135900531,-0.185547025,-0.143615439,-0.19916676,-0.137699984,-0.196205121,-0.140591977,-0.198569518,-0.133806584,-0.191639467,-0.137782003,-0.194425107,-0.138996308,-0.190831285,-0.146111822,-0.190190619,-0.138433056,-0.192336117,-0.139625098,-0.170984678,-0.149259865,-0.187172946,-0.145462134,-0.182247116,-0.135767,-0.188474886,-0.136832115,-0.186904737,-0.144773738,-0.179778402,-0.149255659,-0.186510345,-0.145661722,-0.180321758,-0.147295845,-0.186678123,-0.145162762,-0.180726437,-0.145101511,-0.183451237,-0.147378978,-0.176548744,-0.143199055,-0.177152879,-0.141862536,-0.185243684,-0.146604173,-0.180140794,-0.146037419,-0.177465597,-0.144509974,-0.184882289,-0.145126724,-0.17982247,-0.152216735,-0.177256249,-0.146323125,-0.17045853,-0.150274771,-0.172870815,-0.149936735,-0.178030311,-0.150471877,-0.174498105,-0.154476714,-0.166666197,-0.147700539,-0.179575827,-0.149452158,-0.173651765,-0.148818205,-0.169641629,-0.148917149,-0.171386943,-0.154343829,-0.176558534,-0.15257294,-0.170332088,-0.147012151,-0.177854968,-0.154748087,-0.169646858,-0.152127639,-0.174079562,-0.152623666,-0.174642716,-0.149176554,-0.173331453,-0.150582827,-0.171549438,-0.148664857,-0.17255537,-0.150561108,-0.173718702,-0.152460068,-0.169558081,-0.140713939,-0.16388222,-0.144009273,-0.163749088,-0.148485348,-0.171315085,-0.150907103,-0.171064551,-0.150087288,-0.170813238,-0.154538462,-0.162999371,-0.153490976,-0.169331684,-0.14805506,-0.166955762,-0.152149104,-0.169487216,-0.154508903,-0.17088501,-0.152348032,-0.170945237,-0.151023862,-0.169196669,-0.147685489,-0.168955921,-0.150042033,-0.172718299,-0.151800017,-0.168782845,-0.154786271,-0.169892607,-0.149573993,-0.16842691,-0.151333014,-0.170681722,-0.144920494,-0.153308331,-0.15924707,-0.168384834,-0.155323967,-0.163919854,-0.158087983,-0.166988901,-0.155580029,-0.163895476,-0.152180118,-0.168500797,-0.156705949,-0.164375735,-0.150467643,-0.163687182,-0.155385621,-0.160374628,-0.153541066,-0.164226488,-0.152461233,-0.164177644,-0.154707928,-0.161188981,-0.152315977,-0.169015995,-0.151486523,-0.165376421,-0.150950065,-0.156877499,-0.154608733,-0.163607395,-0.155549404,-0.167059451,-0.154179242,-0.164703666,-0.153533798,-0.165120418,-0.154441819,-0.162885553,-0.158648932,-0.164986525,-0.154687352,-0.166676887,-0.154607579,-0.161368369,-0.147065255,-0.165848533,-0.153048889,-0.160121815,-0.157637625,-0.16303027,-0.154905214,-0.162783818,-0.154385924,-0.154972686,-0.155425075,-0.159217937,-0.153206532,-0.161210781,-0.154859031,-0.163126968,-0.156712464,-0.165832865,-0.155097586,-0.160809432,-0.152890091,-0.167887929,-0.156846491,-0.167397671,-0.155847509,-0.165892889,-0.157061799,-0.164686166,-0.153406302,-0.168469961,-0.154957575,-0.163881584,-0.151272221,-0.164697041,-0.159995085,-0.16173044,-0.157658795,-0.163310171,-0.158957156,-0.165129115,-0.156046165,-0.160432097,-0.152253578,-0.167225238,-0.15590831,-0.16805931,-0.157700067,-0.164267834,-0.158725293,-0.164464089,-0.154051537,-0.163018202,-0.160323262,-0.163426966,-0.154564504,-0.159373353,-0.159677401,-0.16464405,-0.158002091,-0.160519938,-0.156630189,-0.163908176,-0.155360615,-0.16371065,-0.156775677,-0.161323712,-0.159590116,-0.161113788,-0.156080454,-0.162713407,-0.157914099,-0.164719709,-0.156788576,-0.160184381,-0.153967715,-0.164135123,-0.159777412,-0.161306794,-0.152122069,-0.164561008,-0.160317735,-0.164954292,-0.15930981,-0.162069009,-0.158053496,-0.163692273,-0.15848177,-0.161437434,-0.156186556,-0.157861739,-0.159211711,-0.165690875,-0.156954978,-0.162771787,-0.155335752,-0.164618291,-0.158195415,-0.162519123,-0.15492551,-0.159952158,-0.155437192,-0.161480963,-0.15644734,-0.159716599,-0.16082989,-0.161687763,-0.157776394,-0.161571649,-0.158688001,-0.160401647,-0.158126182,-0.158087909,-0.158298329,-0.162881776,-0.158353089,-0.1620265,-0.159884835,-0.161497235,-0.159008814,-0.15733745,-0.156082788,-0.161529236,-0.157367259,-0.158551044,-0.157460688,-0.158039523,-0.158551752,-0.151534086,-0.162399434,-0.160278068,-0.158044542,-0.157696719,-0.154761706,-0.157549919,-0.15786697,-0.155387702,-0.156359239,-0.151364294,-0.153429157,-0.153837949,-0.155949837,-0.154164538,-0.141078342,-0.141828265,-0.16975772,-0.147060659,-0.16444064,-0.143502897,-0.162347132,-0.139429741,-0.157764925,-0.126279777,-0.160250836,-0.101429857,-0.162964535,0.032325633,0.008120879,-0.336704093,-0.159920402,-0.221638052,-0.162782646,-0.200951758,-0.159929799,-0.189184433,-0.159692636,-0.183522742,-0.157991354,-0.179331538,-0.161107362,-0.180601018,-0.160364955,-0.175965931,-0.159706035,-0.173956508,-0.159026112,-0.172877923,-0.159142761,-0.173122695,-0.162417126,-0.173238531,-0.160651232,-0.171135272,-0.159567675,-0.169855924,-0.160235636,-0.170968212,-0.160532231,-0.168488161,-0.160412041,-0.168345822,-0.158392943,-0.170026528,-0.158410718,-0.169976592,-0.160877224,-0.170094568,-0.160825749,-0.170546439,-0.160916816,-0.168802053,-0.159494501,-0.167720972,-0.16057104,-0.16484526,-0.157473836,-0.1669448,-0.160821013,-0.169453651,-0.16084695,-0.1681124,-0.159267098,-0.166896704,-0.160195281,-0.167761569,-0.160115743,-0.169316907,-0.161669951,-0.167628631,-0.159786236,-0.165858077,-0.158865864,-0.168065439,-0.160736682,-0.167664588,-0.159610141,-0.164323698,-0.159731788,-0.165806358,-0.160012065,-0.166645152,-0.15840703,-0.16311774,-0.161740162,-0.164299592,-0.160353254,-0.166874925,-0.158000099,-0.163811118,-0.160269378,-0.167695509,-0.161063454,-0.166256163,-0.159654861,-0.165419615,-0.159635292,-0.165906365,-0.159303265,-0.166691518,-0.160742037,-0.165371512,-0.160445297,-0.165469023,-0.160569907,-0.164979975,-0.160692101,-0.166395843,-0.160379941,-0.16466984,-0.159668025,-0.164195295,-0.159929455,-0.163829851,-0.161749232,-0.165157842,-0.160891175,-0.163743121,-0.158596561,-0.16248863,-0.158614152,-0.166088038,-0.1604276,-0.165674616,-0.159710842,-0.164990333,-0.157764629,-0.163423026,-0.162004091,-0.165261769,-0.160865653,-0.165726755,-0.160113668,-0.165582055,-0.162991223,-0.165863227,-0.160434359,-0.164333094,-0.161514669,-0.163865403,-0.162391654,-0.164674025,-0.161140829,-0.162472165,-0.159164603,-0.16490883,-0.158330427,-0.16726356,-0.160509563,-0.1646024,-0.161964724,-0.164252822,-0.161822463,-0.164015767,-0.160835159,-0.164005359,-0.161686764,-0.165877823,-0.15997644,-0.164088229,-0.159064246,-0.162228789,-0.16337884,-0.164120859,-0.159545209,-0.164265127,-0.160146113,-0.165322949,-0.160525433,-0.161954086,-0.159949794,-0.166058681,-0.163045337,-0.164828917,-0.16004494,-0.16427029,-0.16060823,-0.162115392,-0.161457234,-0.164326961,-0.161457618,-0.164733501,-0.161014117,-0.165418615,-0.162839196,-0.164001647,-0.160771571,-0.163419832,-0.161187655,-0.166142313,-0.162134603,-0.165319904,-0.16016075,-0.164037469,-0.160374803,-0.162987902,-0.161518597,-0.164715364,-0.162168378,-0.164158768,-0.161086785,-0.163483462,-0.162990813,-0.164193329,-0.160775445,-0.164109675,-0.161844999,-0.163462152,-0.161919234,-0.16223723,-0.161639434,-0.165247373,-0.159793845,-0.164326609,-0.16232039,-0.164807833,-0.161880775,-0.163277274,-0.160779913,-0.163093746,-0.158609117,-0.163720558,-0.163033448,-0.16429301,-0.16093188,-0.163829902,-0.162486344,-0.16334802,-0.161657716,-0.163431818,-0.160588887,-0.162684559,-0.16220017,-0.164549482,-0.16167696,-0.163955107,-0.162715977,-0.163382381,-0.161190617,-0.163336091,-0.1612639,-0.162250705,-0.161456296,-0.164884919,-0.161357782,-0.163555797,-0.160840633,-0.163467289,-0.161700747,-0.1626367,-0.160460186,-0.162309053,-0.160724741,-0.161507217,-0.162091208,-0.162573055,-0.162271588,-0.16153641,-0.160152731,-0.164966501,-0.160397023,-0.163091489,-0.160976609,-0.163404949,-0.160483355,-0.163907957,-0.161821672,-0.161411934,-0.163929993,-0.164053349,-0.161577811,-0.162390196,-0.159979889,-0.162494125,-0.162922457,-0.163027943,-0.160557656,-0.163172844,-0.163068958,-0.163733635,-0.161214267,-0.162771995,-0.162596364,-0.16261207,-0.160821046,-0.161358486,-0.160268821,-0.163120734,-0.160821533,-0.160728395,-0.16301762,-0.163180699,-0.161701637,-0.16220313,-0.161295932,-0.163043667,-0.160709313,-0.161564925,-0.161276245,-0.163582195,-0.160658944,-0.162350965,-0.161174424,-0.163841597,-0.161888304,-0.161655811,-0.160904855,-0.162567176,-0.161374613,-0.162236181,-0.160638733,-0.161220603,-0.162134156,-0.162925064,-0.159204002,-0.161503201,-0.162777805,-0.161874318,-0.161987027,-0.16390558,-0.161124091,-0.162035167,-0.161192991,-0.161692248,-0.160803503,-0.163035875,-0.160558508,-0.16166282,-0.159779969,-0.162373136,-0.160159012,-0.163975527,-0.160938318,-0.162678985,-0.160651822,-0.162139197,-0.161041219,-0.161745007,-0.160148669,-0.160528779,-0.159841948,-0.162274121,-0.161238209,-0.161061503,-0.160795837,-0.161073289,-0.159734482,-0.160547142,-0.160088064,-0.161922073,-0.160505444,-0.161987877,-0.1596056,-0.160723199,-0.159562609,-0.161877999,-0.15841751,-0.162281543,-0.159888389,-0.16137334,-0.159915866,-0.161939508,-0.160115686,-0.16167045,-0.157985011,-0.161740857,-0.158481426,-0.160379491,-0.160744135,-0.15982544,-0.160141932,-0.161408073,-0.158841822,-0.159592266,-0.157779981,-0.159344492,-0.158737962,-0.158197213,-0.157156958,-0.159687483,-0.156902744,-0.159385166,-0.157585398,-0.157714653,-0.155462419,-0.158327479,-0.155553929,-0.1571347,-0.153269598,-0.156576082,-0.152324667,-0.154917269,-0.149144567,-0.150153339,-0.141587182,-0.143060862,-0.119398898,-0.076156425,-0.251659045,-0.186428132,-0.177224795,-0.169055609,-0.168310489,-0.162632384,Person_01
,2,ECG_ECG_3,5.455074963,5.119352437,-0.226381096,0.787679484,0.083462212,22.4293606,3.562692648,-0.612700514,0.544026914,-0.057700068,1.827799235,0.584616677,0.407840933,-0.349125306,2.441115945,6.986757776,5.074692864,3.024828509,-0.865012953,6.437450408,8.772395622,4.289059029,3.934035783,0.111970541,1.978313681,1.305197944,0.488264293,0.817207012,0.720291434,1.388138947,2.187588082,1.132344881,1.539297,2.532871337,2.623900258,2.232160314,1.152152031,1.010552175,1.757496393,1.932661745,1.056015697,0.511878999,0.486351262,0.778730409,1.602943857,1.212968964,0.441910773,0.961303632,0.568252487,2.217308746,1.923332612,0.688431886,1.135465491,0.629436041,1.977801235,1.769392952,0.70978668,0.705945732,0.515405631,1.264319484,0.916936766,0.866265343,0.361240401,0.44935948,1.021642399,0.670706936,1.050162633,0.347444546,0.496754199,0.672246528,0.319972264,0.722216212,0.3188221,0.356066346,0.397747027,0.190399924,0.528633957,0.225875725,0.37463576,0.225223802,0.151607014,0.342186526,0.282389825,0.314183101,0.101746737,0.201746256,0.030534737,0.136172463,0.117772058,-0.051005146,-0.030403399,-0.005898406,-0.044412226,-0.003573762,-0.143508413,-0.101261809,-0.107209173,-0.066276815,-0.129864035,-0.123692395,-0.177724646,-0.106139022,-0.172904891,-0.124019807,-0.188727347,-0.153257132,-0.184900375,-0.14180949,-0.191310416,-0.146384736,-0.197191848,-0.147601741,-0.196289626,-0.144624584,-0.196710733,-0.142453114,-0.195272859,-0.139697507,-0.194352244,-0.137168436,-0.193494934,-0.134696958,-0.192741349,-0.132213446,-0.192044299,-0.129900519,-0.191449996,-0.127481571,-0.189939498,-0.124101305,-0.18965072,-0.121345154,-0.189359504,-0.118345328,-0.185654473,-0.115737042,-0.187890358,-0.111268712,-0.18565638,-0.104128532,-0.180319671,-0.102578579,-0.185089843,-0.101863712,-0.179506975,-0.097010623,-0.174599808,-0.098639991,-0.17719525,-0.077955747,-0.177990986,-0.087636095,-0.177218805,-0.062051013,-0.178497262,-0.051928392,-0.164420499,-0.068106412,-0.177319203,-0.061812552,-0.167623441,-0.059313677,-0.174845839,-0.046961421,-0.165926197,-0.036268532,-0.173720544,-0.042189902,-0.181009318,-0.011614118,-0.146096462,-0.037721253,-0.178717783,-0.022308383,-0.179191004,-0.010649545,-0.202939353,0.012283942,-0.206257379,0.033359874,-0.18694866,0.054514286,-0.171549548,0.042695658,-0.193032924,0.048072813,-0.193230458,0.119549431,-0.198844325,0.096340002,-0.217858379,0.174912578,-0.269477607,0.25465581,-0.290551312,0.365359915,-0.371310636,0.561137038,-0.481282907,1.189744499,-0.946056273,7.737528835,2.352003147,-2.011913471,0.412218761,-0.969879417,0.144067699,-0.674005837,0.048331261,-0.51366981,0.005613184,-0.443419307,-0.007599733,-0.400735677,-0.032696261,-0.331793298,-0.006074373,-0.337268905,-0.030408813,-0.263727688,-0.082894647,-0.295614843,-0.054662959,-0.269241183,-0.05959339,-0.217845985,-0.078040385,-0.248157193,-0.081341206,-0.24961084,-0.073831181,-0.230987729,-0.102023299,-0.249499273,-0.086582069,-0.213595966,-0.089456477,-0.210326954,-0.105967315,-0.233161916,-0.092176776,-0.20584177,-0.105128905,-0.209570709,-0.082108407,-0.19884154,-0.064697337,-0.197978735,-0.08235796,-0.1837641,-0.111306463,-0.186708079,-0.115992203,-0.194555181,-0.110955953,-0.186945069,-0.086651702,-0.193019693,-0.015683575,-0.154799221,-0.137884309,-0.187229231,-0.130990737,-0.184412483,-0.10153186,-0.174161983,-0.11489925,-0.151406968,-0.125074418,-0.153759448,-0.104599969,-0.147716986,-0.126408067,-0.142714146,-0.13300924,-0.18426274,-0.125011838,-0.151597391,-0.140834331,-0.180741968,-0.090509136,-0.167094381,-0.125549586,-0.19167417,-0.125290064,-0.172020465,-0.128782962,-0.15689473,-0.122730635,-0.150481983,-0.135932408,-0.158458814,-0.12661731,-0.141182014,-0.090451789,-0.167930931,-0.09389106,-0.164766048,-0.112511657,-0.164675793,-0.099982415,-0.102235737,-0.13450696,-0.161597109,-0.094697061,-0.183186298,-0.147945517,-0.15948238,-0.10941663,-0.14557457,-0.121197263,-0.171329948,-0.12692504,-0.171153362,-0.131034143,-0.158437233,-0.063224929,-0.157846342,-0.118019585,-0.149096714,-0.149225864,-0.165836635,-0.150442516,-0.157185681,-0.137372826,-0.161197308,-0.135249223,-0.12689111,-0.120512292,-0.133751194,-0.112352868,-0.141342296,-0.133469717,-0.135570185,-0.115843335,-0.143105471,-0.144876935,-0.167157288,-0.143091133,-0.140787574,-0.140078151,-0.14385632,-0.13438172,-0.167755724,-0.134508487,-0.138501392,-0.144621796,-0.173794021,-0.125244938,-0.168178743,-0.115521591,-0.132752485,-0.143616383,-0.145814798,-0.140171025,-0.127393098,-0.125386264,-0.129715057,-0.140441878,-0.170608052,-0.125208969,-0.17575962,-0.127056682,-0.143388007,-0.114846914,-0.15374997,-0.135550464,-0.173341045,-0.097286084,-0.13107384,-0.138997512,-0.176185805,-0.121610265,-0.155294641,-0.143845489,-0.150226006,-0.152276793,-0.172551873,-0.154939986,-0.157837716,-0.133998766,-0.140855978,-0.14224943,-0.170241929,-0.135503147,-0.146373995,-0.156699988,-0.151662571,-0.153103811,-0.153764201,-0.149618087,-0.165849288,-0.160023356,-0.139082152,-0.153465273,-0.155339545,-0.118263636,-0.135333646,-0.138935671,-0.155535654,-0.118633796,-0.126089914,-0.114338698,-0.148072078,-0.114006134,-0.161735624,-0.159817927,-0.120548556,-0.159735334,-0.124475215,-0.132407151,-0.185601147,-0.152368246,-0.14507914,-0.132431407,-0.141636587,-0.154757128,-0.160354129,-0.162588327,-0.154325911,-0.143552212,-0.148948009,-0.115801457,-0.182579963,-0.142578818,-0.158030222,-0.154285002,-0.142278186,-0.149119518,-0.151317652,-0.11735784,-0.173649795,-0.164692628,-0.144919729,-0.158089623,-0.17833645,-0.143257656,-0.166683834,-0.16141314,-0.15976112,-0.142771128,-0.166528331,-0.141767466,-0.166780621,-0.173804425,-0.168436742,-0.162046495,-0.166838236,-0.15724307,-0.16587242,-0.149558695,-0.172153724,-0.141629145,-0.143199526,-0.15327245,-0.166092598,-0.155241669,-0.178010367,-0.159389742,-0.169620516,-0.155427114,-0.17050355,-0.14170143,-0.124035599,-0.179704949,-0.158241966,-0.148711512,-0.165407558,-0.162257244,-0.183527952,-0.150009726,-0.175585868,-0.143718217,-0.173365035,-0.146112281,-0.168505124,-0.172059724,-0.173909796,-0.161884483,-0.165475123,-0.154389899,-0.150972666,-0.1663045,-0.169701577,-0.162448819,-0.152500611,-0.157981712,-0.182553523,-0.157870407,-0.170547908,-0.150730636,-0.153174827,-0.134605261,-0.189887561,-0.175960818,-0.180497791,-0.158725805,-0.152309459,-0.165101254,-0.175364529,-0.149419631,-0.164729982,-0.170452853,-0.164782159,-0.168940729,-0.175799235,-0.156109701,-0.168717449,-0.168344304,-0.180536268,-0.154631502,-0.159089813,-0.161079982,-0.185057318,-0.162916803,-0.176687357,-0.157161737,-0.181105009,-0.167103774,-0.164458678,-0.156560113,-0.180169272,-0.167918184,-0.172729769,-0.163368081,-0.171471193,-0.165370153,-0.165347629,-0.149283805,-0.184494647,-0.154102309,-0.161140205,-0.145184147,-0.179281008,-0.171155171,-0.172913431,-0.169390923,-0.171853792,-0.159657732,-0.157325932,-0.156243935,-0.17348639,-0.165417245,-0.178213693,-0.177476165,-0.174651538,-0.14963923,-0.173493342,-0.173506292,-0.168503048,-0.174732875,-0.172972294,-0.165443249,-0.182491369,-0.163417847,-0.167453994,-0.164375048,-0.187037678,-0.154958324,-0.187819586,-0.173360363,-0.170269189,-0.170933922,-0.172865106,-0.158194553,-0.164487441,-0.16305038,-0.165368025,-0.16981218,-0.176204392,-0.16719474,-0.159085111,-0.162693617,-0.170574192,-0.168533039,-0.18586549,-0.172793778,-0.172949671,-0.183965343,-0.176453598,-0.172917361,-0.171491685,-0.175475192,-0.166975901,-0.165235677,-0.167223569,-0.166920494,-0.169299311,-0.170843731,-0.156013556,-0.15105801,-0.174460066,-0.170498627,-0.190743924,-0.174736361,-0.178205218,-0.156523996,-0.18206189,-0.167068654,-0.174982849,-0.169829014,-0.170495478,-0.156285924,-0.190754171,-0.166169846,-0.185035762,-0.172115258,-0.180823551,-0.17061635,-0.187012279,-0.166907185,-0.171293281,-0.182262866,-0.176895902,-0.180669441,-0.179155435,-0.168076806,-0.175741381,-0.174572888,-0.184277178,-0.168455054,-0.179874197,-0.16571728,-0.182581989,-0.170875221,-0.1839245,-0.165540423,-0.187779352,-0.169681015,-0.177740624,-0.177702573,-0.181029712,-0.174849822,-0.172389957,-0.17988365,-0.183346318,-0.175053897,-0.175097262,-0.178600146,-0.187335,-0.175474887,-0.183991804,-0.168968504,-0.167224857,-0.185835386,-0.181659257,-0.168994868,-0.179032871,-0.174513015,-0.187513481,-0.184240021,-0.180424383,-0.177201798,-0.172926341,-0.171557647,-0.188845884,-0.17306104,-0.181344746,-0.172713586,-0.186894739,-0.185831217,-0.181196231,-0.175279995,-0.17720688,-0.182602395,-0.182204753,-0.178643934,-0.177164579,-0.176674201,-0.170919856,-0.173720702,-0.179977212,-0.174757327,-0.169334766,-0.173428954,-0.175080062,-0.173184871,-0.182170301,-0.180221117,-0.17239817,-0.179090297,-0.184976069,-0.174857234,-0.173272097,-0.173836253,-0.178420109,-0.179603597,-0.183132976,-0.177568899,-0.175769463,-0.168199974,-0.175399178,-0.173548351,-0.180311766,-0.183503879,-0.184921355,-0.179094797,-0.182901938,-0.174823072,-0.171927778,-0.186323542,-0.18075036,-0.181159538,-0.182090004,-0.182828254,-0.178453287,-0.179686609,-0.171998267,-0.179295018,-0.183740915,-0.170907079,-0.182200389,-0.180764418,-0.181172338,-0.187216174,-0.176509877,-0.17839544,-0.182078733,-0.185294685,-0.178215428,-0.175685345,-0.182714403,-0.177415487,-0.181566847,-0.173071025,-0.185645094,-0.183759892,-0.177511618,-0.183076249,-0.17597682,-0.172240219,-0.178489294,-0.181733891,-0.184048497,-0.18110125,-0.182093661,-0.179400363,-0.184231138,-0.184136022,-0.180044741,-0.179114843,-0.180778958,-0.180488812,-0.182327423,-0.178001912,-0.175708646,-0.176702634,-0.184301965,-0.177484335,-0.179009115,-0.179894097,-0.186249209,-0.171559065,-0.181033553,-0.179430267,-0.183790859,-0.172501007,-0.185737325,-0.183995364,-0.184516943,-0.178526707,-0.187535708,-0.18228547,-0.182601166,-0.177271717,-0.182421334,-0.177391756,-0.181688542,-0.177447041,-0.183460077,-0.179192827,-0.178146916,-0.180434894,-0.178011051,-0.183246454,-0.184866017,-0.183047515,-0.180609712,-0.175794489,-0.177670017,-0.176482589,-0.184667381,-0.17949557,-0.178208265,-0.182311537,-0.178679682,-0.171898746,-0.18258215,-0.17585703,-0.188806766,-0.174046183,-0.184517904,-0.174307828,-0.18127354,-0.18611982,-0.180466004,-0.183597597,-0.179649461,-0.177334269,-0.182909601,-0.173179449,-0.184407902,-0.181318689,-0.182764755,-0.17809883,-0.181262587,-0.175290763,-0.177795944,-0.184283588,-0.179389549,-0.180259981,-0.176274766,-0.184069813,-0.180512332,-0.185430366,-0.184961381,-0.181925905,-0.179996386,-0.180528123,-0.183528167,-0.179737213,-0.17934823,-0.178377337,-0.179225276,-0.178155333,-0.179952308,-0.182150541,-0.180521447,-0.18474689,-0.177839673,-0.178059697,-0.17956733,-0.18264061,-0.18128985,-0.180198006,-0.178476048,-0.174736541,-0.178759911,-0.18046696,-0.175676208,-0.17601665,-0.179094961,-0.174542564,-0.186232869,-0.177696161,-0.180626372,-0.175355958,-0.185832142,-0.184702436,-0.18512566,-0.184390982,-0.181332977,-0.184343838,-0.182221428,-0.179506127,-0.184759215,-0.17694994,-0.184631338,-0.182502694,-0.181791389,-0.181425861,-0.183039164,-0.180619035,-0.179420305,-0.186181168,-0.180648557,-0.182485338,-0.177444777,-0.178449864,-0.18242094,-0.179759018,-0.179057893,-0.180252705,-0.185181634,-0.177294893,-0.181445056,-0.180736964,-0.182225546,-0.178339255,-0.181805453,-0.182741837,-0.180685867,-0.181213171,-0.186055765,-0.184298503,-0.182689624,-0.180649576,-0.180258082,-0.179265399,-0.180754859,-0.177779117,-0.182613553,-0.177277265,-0.182739991,-0.181624583,-0.180389889,-0.180932591,-0.178910225,-0.177728154,-0.175573571,-0.179630018,-0.175819675,-0.179312925,-0.187295204,-0.1799581,-0.185068564,-0.181613489,-0.181535128,-0.181571423,-0.183050873,-0.177587222,-0.180706371,-0.182008524,-0.179838894,-0.181932506,-0.18530497,-0.182479182,-0.181972384,-0.179034356,-0.18243676,-0.178690039,-0.18090773,-0.180292047,-0.1794125,-0.180374791,-0.180571433,-0.179865075,-0.182805864,-0.180008417,-0.181918139,-0.180008829,-0.177258665,-0.180255638,-0.181488996,-0.177455239,-0.179617407,-0.180095688,-0.179050375,-0.178271242,-0.181442404,-0.178490355,-0.178394238,-0.180542631,-0.179115054,-0.181525701,-0.179598103,-0.180955755,-0.17814454,-0.179055579,-0.182560362,-0.177748351,-0.183705409,-0.173657974,-0.182896264,-0.18146894,-0.179950833,-0.176790326,-0.180030094,-0.175109802,-0.181957577,-0.182919942,-0.180669707,-0.177180225,-0.179026152,-0.177093419,-0.17911941,-0.179403854,-0.180919716,-0.176978666,-0.175536081,-0.187819684,-0.184786785,-0.18011599,-0.180264032,-0.181986206,-0.180168223,-0.180428093,-0.179174008,-0.17644551,-0.179454284,-0.178656928,-0.181304683,-0.178713906,-0.179023093,-0.175444597,-0.180133505,-0.173895585,-0.174827515,-0.17847478,-0.180166939,-0.171082553,-0.177553235,-0.167215833,-0.176586039,-0.190571681,-0.17918579,-0.184500538,-0.177824921,-0.18325842,-0.180367103,Person_01
,3,ECG_ECG_4,8.891512174,9.454879779,1.580335982,3.151586359,-1.459393608,20.47448516,4.74624638,-0.493598057,1.328867678,0.017198248,1.906534366,1.239797599,0.306977156,0.915752834,-0.278988721,7.179887184,5.616384744,-0.764119015,2.015668043,-0.586061737,8.600877033,7.186333797,0.208552048,1.032569352,0.237749118,1.454431229,1.367692143,0.863997415,0.215538989,0.697734406,1.595554508,3.831668675,1.689081904,0.063094158,0.823480829,1.506903687,2.771272099,1.63126109,-0.054045429,0.451364371,0.558698616,1.068212543,0.84878367,0.087216846,0.283275628,0.51722048,0.949361002,1.181328814,0.371374518,0.564500586,0.660304524,1.125884079,1.186507686,0.60061313,0.656345182,0.604565282,0.835657768,0.808207451,0.540386874,0.807176189,0.442572615,0.757821124,0.607775638,0.535135499,0.948634513,0.390842731,0.586703457,0.511495696,0.275398062,0.796544496,0.194480015,0.368954334,0.298435027,0.137785595,0.518807463,0.169107863,0.153807416,0.286798095,0.000529601,0.385851566,0.13372343,0.125421701,0.198814214,-0.003757934,0.143472647,0.171955015,0.008860709,0.109178391,-0.077583337,0.002261942,0.044492026,-0.030391388,-0.06398552,-0.077597029,-0.128187164,-0.022792113,-0.132400666,-0.089420961,-0.148034691,-0.117163891,-0.133448796,-0.114968076,-0.162770791,-0.11858776,-0.169261531,-0.117539555,-0.170819431,-0.119632953,-0.171735727,-0.122565846,-0.173486195,-0.121361798,-0.171755092,-0.121476415,-0.17236904,-0.119854401,-0.171868567,-0.117942179,-0.171630146,-0.116396266,-0.171135471,-0.114805956,-0.170739323,-0.113279661,-0.170196982,-0.111394841,-0.169319916,-0.109882671,-0.168872489,-0.106229305,-0.167826857,-0.10464018,-0.167970763,-0.101520453,-0.165104996,-0.099439636,-0.166945658,-0.099358982,-0.166160745,-0.095298174,-0.165944487,-0.097158321,-0.167637263,-0.092902338,-0.16657232,-0.090403296,-0.170961854,-0.089838052,-0.168107811,-0.088528034,-0.168545305,-0.088748363,-0.170982058,-0.084334245,-0.171576299,-0.078869279,-0.173561102,-0.077986567,-0.170886831,-0.074999002,-0.172583902,-0.070613125,-0.175045946,-0.065023939,-0.175224806,-0.060474276,-0.171935933,-0.057394436,-0.171650184,-0.049907524,-0.175752405,-0.042007062,-0.174240755,-0.033449705,-0.175284952,-0.031746779,-0.178800878,-0.018454439,-0.183223228,-0.010231519,-0.192850008,0.001092494,-0.19574665,0.017728443,-0.201384108,0.030898333,-0.205897378,0.055245262,-0.217375682,0.08716526,-0.231103236,0.131777693,-0.249535216,0.195565465,-0.27440916,0.301168367,-0.318373559,0.50797919,-0.410495705,1.062048306,-0.743714401,8.149395806,1.654743518,-1.826459253,0.226006928,-0.906092154,0.061710137,-0.633479142,-0.000574436,-0.499975213,-0.033505275,-0.423227326,-0.050763496,-0.368666487,-0.065617936,-0.333155153,-0.07423677,-0.305345182,-0.078836526,-0.283002223,-0.08324538,-0.270953289,-0.082669286,-0.252091872,-0.091588297,-0.243696375,-0.092252556,-0.228582247,-0.094686496,-0.225292729,-0.094746787,-0.212334709,-0.097589893,-0.206347383,-0.100779236,-0.197341097,-0.103759336,-0.199528971,-0.111949915,-0.20024421,-0.107371909,-0.20454857,-0.116230807,-0.202107866,-0.11798913,-0.198200239,-0.127125786,-0.200542638,-0.126781114,-0.193227011,-0.127495936,-0.195476868,-0.128371827,-0.194949917,-0.122493619,-0.191508316,-0.132970821,-0.186852281,-0.131321042,-0.185459609,-0.128302213,-0.185049521,-0.129651164,-0.181544705,-0.127075552,-0.179435948,-0.130251357,-0.177000578,-0.12883701,-0.168509297,-0.126701615,-0.175191664,-0.129187854,-0.16725052,-0.117412796,-0.168940671,-0.127151415,-0.1661009,-0.129230057,-0.162518714,-0.126671444,-0.168197482,-0.12765082,-0.170575285,-0.127330876,-0.168882781,-0.131081425,-0.164418676,-0.13427459,-0.169259428,-0.13125711,-0.164878154,-0.128551113,-0.166536928,-0.129602962,-0.162040519,-0.126218882,-0.165895622,-0.138109791,-0.164675769,-0.133968114,-0.163104652,-0.140201203,-0.168157323,-0.140100501,-0.164916763,-0.137787092,-0.168666695,-0.13998607,-0.166877802,-0.139624109,-0.166084472,-0.140804398,-0.165415021,-0.139062731,-0.163938024,-0.138209737,-0.165052716,-0.138744502,-0.161689093,-0.136467756,-0.160461369,-0.139186435,-0.161713483,-0.136482259,-0.159006627,-0.134045323,-0.158506423,-0.13398199,-0.154575836,-0.13578378,-0.15823127,-0.135515991,-0.156058863,-0.13359947,-0.157024157,-0.136663963,-0.155277196,-0.137412633,-0.158873961,-0.137227246,-0.15674164,-0.137292125,-0.158064444,-0.13812766,-0.158977747,-0.140019522,-0.156214401,-0.140349455,-0.158140073,-0.143415936,-0.159028896,-0.143561815,-0.160407531,-0.142112097,-0.162913841,-0.144444611,-0.160597228,-0.142544571,-0.159262106,-0.145529041,-0.15793878,-0.14444462,-0.158624221,-0.143856287,-0.15943917,-0.141399513,-0.157758239,-0.143211944,-0.157430305,-0.142669475,-0.157947857,-0.141897968,-0.156398934,-0.142094825,-0.155279077,-0.14091359,-0.153258414,-0.139804877,-0.153081354,-0.142122612,-0.15223932,-0.138454729,-0.155747127,-0.14051516,-0.155654711,-0.139658251,-0.154800916,-0.138703687,-0.153885934,-0.141599186,-0.155162204,-0.142015228,-0.153117841,-0.142793439,-0.154340465,-0.142466592,-0.15496479,-0.143011773,-0.153512169,-0.144072345,-0.156857799,-0.14363799,-0.155731103,-0.144985425,-0.156293386,-0.14351678,-0.155563662,-0.144643022,-0.155928632,-0.144922333,-0.156073723,-0.144628423,-0.156820737,-0.145417774,-0.15552836,-0.14511821,-0.154945025,-0.145201613,-0.154286433,-0.14450403,-0.153545512,-0.143314633,-0.155257583,-0.14259042,-0.152995828,-0.142858668,-0.150818678,-0.142686536,-0.150944398,-0.142061113,-0.151245303,-0.141139743,-0.151160676,-0.141790335,-0.150484254,-0.141231026,-0.150427013,-0.141046141,-0.148622986,-0.142661049,-0.153077907,-0.142671203,-0.152388424,-0.142193977,-0.152158045,-0.144432719,-0.15219993,-0.144873488,-0.15238147,-0.145333171,-0.153403395,-0.144531305,-0.153963685,-0.145916866,-0.154487048,-0.145600378,-0.154556299,-0.146586234,-0.155202607,-0.146533984,-0.154061294,-0.146690176,-0.154438228,-0.147310799,-0.153844909,-0.14607452,-0.153011484,-0.144648839,-0.15217399,-0.145665204,-0.153339653,-0.145075995,-0.15304951,-0.145240473,-0.150932268,-0.14433499,-0.15059401,-0.143997687,-0.14950265,-0.142315837,-0.151736812,-0.1436943,-0.151090591,-0.143490385,-0.150967694,-0.143358393,-0.149702968,-0.145129865,-0.151914889,-0.145201214,-0.150804836,-0.144786715,-0.151929133,-0.145040808,-0.151295699,-0.145506928,-0.152462378,-0.146304736,-0.152582742,-0.144821181,-0.152671955,-0.147538775,-0.153987585,-0.146556415,-0.153527269,-0.14772992,-0.152840405,-0.147118976,-0.153595411,-0.147456384,-0.153882201,-0.147288826,-0.1532812,-0.147253233,-0.15279903,-0.146484104,-0.153011253,-0.146377061,-0.152338158,-0.146696018,-0.151796404,-0.14708782,-0.151651957,-0.145620216,-0.152117779,-0.1456229,-0.15163288,-0.144819369,-0.150805918,-0.14579804,-0.149524884,-0.14450359,-0.149515537,-0.143730513,-0.149677084,-0.143628411,-0.150732527,-0.143626097,-0.150113352,-0.145306558,-0.149316476,-0.143973363,-0.151349819,-0.145532796,-0.150256481,-0.145638237,-0.151364061,-0.147065314,-0.150081696,-0.146938094,-0.151441892,-0.147989113,-0.151450287,-0.147001801,-0.152586361,-0.147874984,-0.152696581,-0.148272946,-0.15266401,-0.147791565,-0.152433191,-0.147671002,-0.150774232,-0.147872466,-0.152158561,-0.14714957,-0.152678716,-0.147646382,-0.151099094,-0.146802599,-0.150692826,-0.146344796,-0.150524249,-0.146268501,-0.149759318,-0.14620866,-0.148952568,-0.145561936,-0.149394222,-0.143976519,-0.148179878,-0.144805456,-0.149429063,-0.144335896,-0.149137401,-0.143500627,-0.148972139,-0.143724236,-0.147710507,-0.140823556,-0.14659912,-0.147889774,-0.149435603,-0.147489073,-0.149051504,-0.146444516,-0.14941872,-0.146865277,-0.147560072,-0.147697555,-0.145956687,-0.147634427,-0.13679392,-0.128082289,-0.166875239,-0.149659474,-0.15811699,-0.148576707,-0.15553164,-0.148545336,-0.154735865,-0.148470959,-0.154769398,-0.150089706,-0.154928578,-0.148671051,-0.153565529,-0.149794913,-0.154406436,-0.148368288,-0.153114113,-0.149316386,-0.153543425,-0.149311169,-0.151849239,-0.148305071,-0.152939195,-0.148249704,-0.152542584,-0.148351918,-0.152223976,-0.148434642,-0.151621371,-0.147907992,-0.150857438,-0.148085105,-0.150243021,-0.147413613,-0.151823576,-0.147295497,-0.152185336,-0.148169363,-0.151295778,-0.14826854,-0.150754841,-0.147419154,-0.151161652,-0.147638258,-0.152282847,-0.149147686,-0.152928237,-0.148964314,-0.152666386,-0.148808132,-0.152684176,-0.147660375,-0.152673859,-0.149222052,-0.152045669,-0.148860529,-0.151870039,-0.14895045,-0.153030397,-0.149169231,-0.152026051,-0.14962954,-0.152578067,-0.14967621,-0.15168163,-0.148838655,-0.151382754,-0.148518853,-0.151722634,-0.149228501,-0.1518881,-0.148827968,-0.15085799,-0.148248458,-0.151801961,-0.147850404,-0.151094828,-0.148169013,-0.150771269,-0.148017258,-0.150216213,-0.148298093,-0.150546633,-0.147107775,-0.151209693,-0.148587206,-0.151056111,-0.149099908,-0.150516381,-0.148260559,-0.151489539,-0.148587234,-0.151717284,-0.148533824,-0.15139709,-0.149473352,-0.151595946,-0.149269895,-0.152110444,-0.149212253,-0.152183079,-0.149382294,-0.151917103,-0.149591006,-0.151589552,-0.149675501,-0.152478322,-0.149132848,-0.151849391,-0.148781317,-0.152100136,-0.149064808,-0.150807717,-0.149385758,-0.152402038,-0.14981594,-0.150968701,-0.149393171,-0.152043541,-0.149269456,-0.150862244,-0.148830045,-0.150785767,-0.148643602,-0.151145194,-0.148445621,-0.150406966,-0.147361989,-0.149672432,-0.148513713,-0.150319537,-0.148116198,-0.151089337,-0.148111295,-0.15074983,-0.148280937,-0.150423532,-0.147728579,-0.150365854,-0.148504908,-0.150370933,-0.149578853,-0.151010995,-0.148330106,-0.151120599,-0.148504065,-0.149855694,-0.149175331,-0.151676981,-0.150106367,-0.151257601,-0.150273088,-0.152306547,-0.150154697,-0.151854345,-0.150595626,-0.15229439,-0.150366098,-0.152454675,-0.149733226,-0.151784124,-0.14980301,-0.15176233,-0.149929683,-0.151979701,-0.149692045,-0.151703433,-0.149275122,-0.151053445,-0.149715537,-0.150776878,-0.149702809,-0.150428815,-0.149422688,-0.150221472,-0.149275531,-0.14989253,-0.147957966,-0.150420193,-0.149000478,-0.150204112,-0.148875708,-0.150654554,-0.148572448,-0.149917095,-0.148479356,-0.150668036,-0.148761695,-0.151169961,-0.149462896,-0.150539845,-0.149063201,-0.150649133,-0.149616843,-0.151365635,-0.15016391,-0.151087569,-0.149774304,-0.15151178,-0.149177609,-0.151595649,-0.150493875,-0.151825319,-0.150501528,-0.152184827,-0.150557291,-0.151358849,-0.150145563,-0.152037075,-0.150007774,-0.150791866,-0.149959581,-0.151784031,-0.150449784,-0.151723625,-0.150342258,-0.151291948,-0.150036707,-0.151839554,-0.150352908,-0.151306916,-0.149072733,-0.150806108,-0.149844127,-0.150390667,-0.149214949,-0.150624467,-0.149037762,-0.150395489,-0.149103488,-0.149737889,-0.149120704,-0.149936549,-0.148994577,-0.149980204,-0.14880016,-0.150114866,-0.148912336,-0.150194643,-0.149043842,-0.150880448,-0.149456329,-0.150749373,-0.149079694,-0.152002866,-0.149479231,-0.151009415,-0.149718784,-0.150688053,-0.150312405,-0.151237867,-0.150803349,-0.151396574,-0.150646888,-0.151848265,-0.150357968,-0.152401245,-0.150778047,-0.152124346,-0.15064076,-0.151807847,-0.150603877,-0.15160491,-0.150986508,-0.151439905,-0.15054429,-0.151077603,-0.150043977,-0.151258129,-0.150061421,-0.151146333,-0.150236435,-0.150587591,-0.149539955,-0.15038133,-0.149381668,-0.150506931,-0.149022207,-0.150043826,-0.150027241,-0.14981649,-0.148904579,-0.149197757,-0.149009986,-0.149830126,-0.149938654,-0.15014389,-0.149283118,-0.150116343,-0.148879139,-0.149924613,-0.150116967,-0.151265539,-0.149214086,-0.151357977,-0.149970862,-0.151000833,-0.150587998,-0.15077001,-0.150031643,-0.150833687,-0.15106807,-0.151786271,-0.150104865,-0.151084278,-0.150765225,-0.151324885,-0.150644956,-0.151229863,-0.151147743,-0.151081191,-0.151039386,-0.151418147,-0.150236212,-0.151470412,-0.150646204,-0.151059394,-0.150030809,-0.150802475,-0.150588569,-0.15106226,-0.149687649,-0.150761246,-0.149718255,-0.151235618,-0.149667052,-0.150373607,-0.148833663,-0.15004131,-0.149151349,-0.150340671,-0.149445391,-0.150377825,-0.149099619,-0.150590671,-0.150007522,-0.149433865,-0.149967747,-0.150153853,-0.149835307,-0.150666958,-0.149672359,-0.150776776,-0.149981238,-0.149652128,-0.15037967,-0.150207374,-0.150803668,-0.151047205,-0.150639721,-0.151352682,-0.150970058,-0.151095908,-0.150344355,-0.151047556,-0.151229239,-0.151798115,-0.151667658,-0.151504392,-0.150814811,-0.151520447,-0.151281528,-0.151277918,-0.150772127,-0.150885873,-0.149941861,-0.151155713,-0.150325232,-0.150924143,-0.150034475,-0.150536885,-0.149832776,-0.150766125,-0.150088549,-0.15053071,-0.149555111,-0.150032822,-0.149208722,-0.14961244,-0.149033833,-0.149687542,-0.147968801,-0.149707144,-0.148484318,-0.149661025,-0.147219245,-0.149355203,-0.142214421,-0.143288414,-0.16100867,-0.151125983,-0.152308966,-0.151183512,-0.150931388,-0.150573252,Person_01
,4,ECG_ECG_5,17.43955443,4.621039085,-1.941838974,2.565513883,-3.653124031,11.86126751,9.67218007,-2.843100972,1.86101409,-1.345131582,1.326274517,1.442025429,0.966311857,-0.847685928,1.293234272,-1.579224598,9.910885588,6.355619753,-1.448459919,1.581279055,-1.363093391,4.477335519,9.242231835,-0.108027045,0.512298696,-0.230227191,0.289942952,1.4579472,1.235572056,-0.267483322,0.496223526,-0.31447985,3.026005062,4.225321511,0.478556978,0.484667019,-0.025033968,0.938144186,2.610390828,1.097063383,0.104833249,0.154153712,0.158799521,1.249907428,1.180179555,0.448686487,0.205134479,0.126509839,0.981227474,1.926777533,0.975841868,0.544408649,0.270783889,0.565713666,1.522379121,1.230695153,0.574741502,0.31992439,0.245480882,0.815355155,1.036636226,0.584314266,0.392730088,0.192586525,0.402561372,0.818816463,0.636627778,0.396682258,0.2301803,0.220865192,0.47722588,0.516176309,0.251439372,0.215134991,0.049625531,0.262365378,0.366772926,0.301589887,0.215442953,0.127832432,0.070283607,0.330686304,0.252279155,0.226150013,0.069717915,0.018892113,0.115267958,0.195807985,0.041943611,0.057827739,-0.095336152,-0.020799098,-0.013438736,-0.020915036,-0.063661632,-0.079172047,-0.134769185,-0.055929569,-0.101509225,-0.078880604,-0.122801218,-0.114357907,-0.14168173,-0.090251731,-0.141238696,-0.10551053,-0.154680853,-0.115763291,-0.151421974,-0.109365989,-0.153549163,-0.110540022,-0.155372492,-0.109864295,-0.154263919,-0.108056978,-0.153694026,-0.10631395,-0.152907832,-0.104582585,-0.15222237,-0.10292027,-0.151635178,-0.101291769,-0.151133269,-0.099441039,-0.150527263,-0.097854297,-0.15017869,-0.096086637,-0.149189657,-0.09317053,-0.148150228,-0.092535019,-0.149412598,-0.090385413,-0.146116152,-0.087381814,-0.147749147,-0.087593258,-0.147959798,-0.081393906,-0.14071038,-0.08124612,-0.146791623,-0.081434662,-0.147711417,-0.070966644,-0.138988253,-0.077680277,-0.146045737,-0.075250374,-0.142857945,-0.068780012,-0.146474167,-0.07038022,-0.149127575,-0.064783938,-0.146320626,-0.062252825,-0.150269801,-0.062970128,-0.149781206,-0.052893685,-0.150274374,-0.05297576,-0.152152478,-0.049461192,-0.149551993,-0.040208689,-0.154051401,-0.039993605,-0.15557711,-0.030828539,-0.153166903,-0.020739284,-0.15840223,-0.017446374,-0.16659333,-0.005602984,-0.160200697,-0.001991818,-0.17015445,0.012421686,-0.171188701,0.029609486,-0.176790113,0.054151547,-0.18589957,0.08067642,-0.19228879,0.123093096,-0.208285984,0.1815639,-0.229779373,0.271916526,-0.26799083,0.458461506,-0.345013414,0.956685094,-0.610690637,7.774886063,1.311993919,-1.61357383,0.171955238,-0.794236851,0.039521711,-0.558841062,-0.011933873,-0.447062006,-0.039906951,-0.377577107,-0.056632996,-0.334714146,-0.063984373,-0.301562894,-0.077467563,-0.279370649,-0.084213052,-0.262187859,-0.084797283,-0.249445787,-0.091279231,-0.234865613,-0.092195552,-0.224444513,-0.095602385,-0.217153087,-0.101241804,-0.209445648,-0.09749233,-0.203630164,-0.096847146,-0.196244349,-0.101773797,-0.18918265,-0.103871123,-0.186965455,-0.107103801,-0.186338792,-0.110568622,-0.179729572,-0.105771676,-0.176391962,-0.106197681,-0.180324684,-0.112200188,-0.176636579,-0.11181365,-0.173263867,-0.11294822,-0.169581055,-0.110538664,-0.167516988,-0.112164037,-0.164868055,-0.113808684,-0.162136468,-0.112908122,-0.160964897,-0.111116449,-0.159533658,-0.115040699,-0.16255276,-0.115558939,-0.160812896,-0.115354884,-0.155710691,-0.116888084,-0.152257999,-0.110541782,-0.154295971,-0.113199843,-0.153614608,-0.113854611,-0.152817446,-0.113892435,-0.154015916,-0.116251394,-0.15043377,-0.113963354,-0.146613793,-0.116759624,-0.148377285,-0.116536013,-0.154351023,-0.11844534,-0.146278834,-0.116476288,-0.147978708,-0.113076801,-0.148293051,-0.114050403,-0.142068334,-0.118427402,-0.146381795,-0.118857491,-0.145887155,-0.119659403,-0.147820969,-0.116863834,-0.14417526,-0.121430917,-0.144533543,-0.116886754,-0.142982898,-0.116767478,-0.144110252,-0.122172671,-0.144996995,-0.119731619,-0.142480114,-0.122473419,-0.141390843,-0.121884551,-0.14410873,-0.119214538,-0.143437662,-0.121510662,-0.141187786,-0.122264997,-0.142748752,-0.121549382,-0.142620242,-0.122110469,-0.138571902,-0.123182307,-0.139495682,-0.119758164,-0.141475022,-0.124647027,-0.142961892,-0.121905536,-0.141707262,-0.123745666,-0.140761491,-0.122258227,-0.138214311,-0.121028812,-0.138636586,-0.121832804,-0.138693708,-0.123191801,-0.139731575,-0.122524602,-0.140222468,-0.124186196,-0.137999029,-0.123836305,-0.137567839,-0.12447262,-0.137487797,-0.122448561,-0.139104769,-0.12358353,-0.138296653,-0.123936727,-0.140478537,-0.12267502,-0.137754782,-0.124078668,-0.13784426,-0.122535583,-0.135085197,-0.122154194,-0.136729424,-0.123333065,-0.136612329,-0.12409818,-0.136210893,-0.124748496,-0.135745273,-0.12353846,-0.136488962,-0.123281179,-0.136184213,-0.121751916,-0.136756546,-0.125422847,-0.133632047,-0.124104507,-0.135391563,-0.123735766,-0.136726042,-0.123677544,-0.135476269,-0.121179958,-0.135655556,-0.12482509,-0.133704981,-0.124558432,-0.134177967,-0.123910899,-0.13463751,-0.120404641,-0.134198535,-0.12569952,-0.135545708,-0.122344264,-0.134448868,-0.125508176,-0.13495943,-0.125682972,-0.131984157,-0.12404235,-0.13417718,-0.127592439,-0.134319761,-0.123175964,-0.135608076,-0.125680343,-0.133980721,-0.123427886,-0.134450928,-0.126812918,-0.132346428,-0.123770629,-0.134760838,-0.126468698,-0.133613383,-0.124851507,-0.13328235,-0.126246333,-0.131396728,-0.123021764,-0.135403984,-0.125458095,-0.133532512,-0.126208219,-0.13140536,-0.124633663,-0.132050322,-0.124728287,-0.133819401,-0.125109868,-0.134028251,-0.125192561,-0.132023977,-0.123762541,-0.133776482,-0.125964538,-0.130930915,-0.124471628,-0.132973203,-0.126607052,-0.1339209,-0.125613981,-0.131255502,-0.123537896,-0.135502325,-0.124584659,-0.131860963,-0.124610772,-0.132921022,-0.12209563,-0.132481845,-0.125629585,-0.132065757,-0.124844822,-0.13360709,-0.125087078,-0.130333067,-0.124397118,-0.132949857,-0.126282491,-0.132338184,-0.126260593,-0.132931718,-0.123110716,-0.132396474,-0.124814902,-0.133797388,-0.125773497,-0.133262497,-0.126454855,-0.133544704,-0.125809855,-0.132872334,-0.125774539,-0.132091477,-0.126799687,-0.131628146,-0.125754115,-0.128431799,-0.127377203,-0.131675194,-0.125873275,-0.131889338,-0.125687676,-0.133269865,-0.127225555,-0.13317004,-0.126590462,-0.13050157,-0.12584538,-0.132344206,-0.123977734,-0.129382403,-0.125791697,-0.132407866,-0.126227804,-0.133127871,-0.126118103,-0.13077798,-0.125642388,-0.13298784,-0.126531149,-0.133450658,-0.126880654,-0.130841306,-0.127658032,-0.131413891,-0.12558773,-0.131187182,-0.12575486,-0.131944942,-0.12581454,-0.131764437,-0.1263915,-0.132978332,-0.127863408,-0.132182942,-0.126719949,-0.130633528,-0.126483842,-0.130410803,-0.126193142,-0.130620585,-0.128562117,-0.130668026,-0.124256118,-0.132679691,-0.12754073,-0.131169847,-0.126602397,-0.130973821,-0.126099711,-0.13060377,-0.127373201,-0.131177609,-0.127601499,-0.130315471,-0.126193966,-0.132429196,-0.127567226,-0.131354118,-0.126649142,-0.130241406,-0.126754206,-0.130071996,-0.126431114,-0.130033832,-0.127133935,-0.131593999,-0.127644429,-0.128762759,-0.126633926,-0.129193469,-0.128313607,-0.132030342,-0.126080575,-0.130627067,-0.126446323,-0.131664027,-0.128677889,-0.131844653,-0.127999417,-0.131293709,-0.12690049,-0.131138557,-0.127324179,-0.131656037,-0.127289366,-0.13132102,-0.127253093,-0.130669338,-0.126164673,-0.13124133,-0.127285391,-0.130476011,-0.127496811,-0.12972653,-0.127250293,-0.128821695,-0.126537955,-0.129712518,-0.124302705,-0.129290868,-0.12667237,-0.130019364,-0.123090288,-0.128887009,-0.131553881,-0.13007799,-0.129083614,-0.128956281,-0.127685408,-0.128053473,-0.126539746,-0.1275608,-0.126862751,-0.126019437,-0.128765772,-0.114999629,-0.112282015,-0.145989901,-0.128097475,-0.13680206,-0.127763571,-0.134652294,-0.128414963,-0.134201622,-0.127003803,-0.133158736,-0.125814345,-0.131376639,-0.128141075,-0.131739429,-0.128841634,-0.131719528,-0.128925551,-0.131780991,-0.127828929,-0.130364723,-0.127102927,-0.130811032,-0.129219451,-0.131324291,-0.128443447,-0.13082634,-0.127536882,-0.132993187,-0.127374449,-0.130745009,-0.127281959,-0.131723049,-0.127177524,-0.131310269,-0.126688827,-0.13190296,-0.128274851,-0.13123635,-0.128609054,-0.130205911,-0.128903963,-0.130893703,-0.129275986,-0.131351663,-0.128476494,-0.131579787,-0.12725597,-0.131574226,-0.126759459,-0.131246613,-0.128444255,-0.131713639,-0.127706154,-0.132030867,-0.129425565,-0.131444961,-0.127962891,-0.130186732,-0.127229678,-0.131723506,-0.12955518,-0.131595965,-0.128864501,-0.131489356,-0.127886807,-0.131004304,-0.12810002,-0.131178115,-0.128626407,-0.131724406,-0.127482554,-0.132088161,-0.127861714,-0.130476872,-0.128719801,-0.131185516,-0.127669393,-0.131245413,-0.128759886,-0.131058372,-0.127683452,-0.130768118,-0.128829099,-0.130884564,-0.127287083,-0.130266196,-0.129400066,-0.130605384,-0.128000021,-0.130924213,-0.128781186,-0.1320259,-0.128966905,-0.131118364,-0.128607172,-0.130890655,-0.128275642,-0.13056491,-0.128374204,-0.130558224,-0.128776266,-0.130077951,-0.127789159,-0.131570513,-0.12839387,-0.131198948,-0.128129836,-0.131161548,-0.12857498,-0.130629116,-0.127651872,-0.130519714,-0.128914298,-0.130728781,-0.127262066,-0.130349425,-0.127179038,-0.130166247,-0.128416867,-0.130520812,-0.128857951,-0.131646048,-0.128391464,-0.1308473,-0.127606418,-0.129555963,-0.128945013,-0.13076768,-0.128372066,-0.13114321,-0.128955739,-0.130683199,-0.128680787,-0.130620791,-0.129317561,-0.130220513,-0.128543539,-0.130213971,-0.128045051,-0.130070033,-0.129306468,-0.129783929,-0.12793714,-0.13013434,-0.128017568,-0.130822313,-0.128349391,-0.129847606,-0.12823478,-0.129921113,-0.127674886,-0.129701632,-0.129383484,-0.130005324,-0.128582074,-0.130728029,-0.129120794,-0.129776385,-0.129051902,-0.129971839,-0.128076896,-0.12862838,-0.128647336,-0.130178094,-0.128402897,-0.130300772,-0.129000777,-0.130871972,-0.12935467,-0.131458402,-0.129087735,-0.130668464,-0.129041292,-0.130138472,-0.129277505,-0.130726567,-0.128951975,-0.130102676,-0.127475839,-0.130328043,-0.128625415,-0.129958028,-0.129051041,-0.13040075,-0.12913049,-0.13029338,-0.128003009,-0.129416399,-0.129058409,-0.130326535,-0.127898716,-0.130885111,-0.128708478,-0.129823671,-0.12826466,-0.131019029,-0.128384396,-0.131132122,-0.12870731,-0.13082459,-0.129992286,-0.13038051,-0.129304296,-0.130210043,-0.128414363,-0.129839085,-0.12899538,-0.1304713,-0.128993779,-0.130400906,-0.128897554,-0.13144685,-0.12854517,-0.130474093,-0.129489813,-0.130680392,-0.128269598,-0.13017855,-0.129281341,-0.129567819,-0.12961679,-0.131088203,-0.129378071,-0.129531948,-0.129774957,-0.130334642,-0.129380578,-0.130015548,-0.128899595,-0.129979669,-0.12833123,-0.130422875,-0.129664129,-0.130799361,-0.129365443,-0.130122311,-0.128920967,-0.129915888,-0.129454402,-0.129970515,-0.129202377,-0.129693213,-0.130141827,-0.129934425,-0.129273614,-0.129968723,-0.129218676,-0.130234174,-0.129036499,-0.129641519,-0.129291794,-0.129843747,-0.128714206,-0.130175832,-0.12859799,-0.129952545,-0.129064551,-0.130117225,-0.128665239,-0.130098533,-0.129307807,-0.130106596,-0.128798462,-0.129704781,-0.129230135,-0.129927338,-0.129034014,-0.129158026,-0.129333004,-0.130548701,-0.129746356,-0.130103477,-0.129553004,-0.130089397,-0.129383467,-0.129942254,-0.129127176,-0.129711219,-0.129159805,-0.129890014,-0.129052642,-0.129674517,-0.129238161,-0.129282971,-0.128954559,-0.129703036,-0.129455447,-0.129160644,-0.129188782,-0.129766367,-0.129486534,-0.130125558,-0.12944032,-0.129232213,-0.128572139,-0.130318026,-0.128723338,-0.12977293,-0.129210919,-0.130278459,-0.12864745,-0.129600651,-0.12904786,-0.129359282,-0.128830656,-0.129485036,-0.129032116,-0.129520484,-0.128655926,-0.130790788,-0.129168623,-0.129640297,-0.129052431,-0.12981428,-0.129186401,-0.129277742,-0.129598162,-0.129167397,-0.128675456,-0.130347204,-0.12904567,-0.129716524,-0.129287057,-0.129878968,-0.128782631,-0.129351795,-0.129364193,-0.129178355,-0.12849074,-0.128898207,-0.129609493,-0.130140523,-0.129447125,-0.129554772,-0.128687459,-0.129773864,-0.128291843,-0.129472993,-0.128341037,-0.129181885,-0.129190745,-0.129131403,-0.128925364,-0.130113194,-0.129297658,-0.129560878,-0.129259667,-0.129231898,-0.128890106,-0.12940151,-0.129362444,-0.129442299,-0.128952495,-0.129668915,-0.12899046,-0.129297202,-0.128959952,-0.128511181,-0.129153383,-0.129529816,-0.12868401,-0.129354874,-0.129027497,-0.129020983,-0.129473144,-0.128775222,-0.128298875,-0.129421452,-0.128988994,-0.128819229,-0.128840023,-0.128626464,-0.12838875,-0.128744648,-0.128657291,-0.128579725,-0.128293836,-0.129014638,-0.128284366,-0.128718845,-0.128083732,-0.128806475,-0.128407408,-0.128526634,-0.12795758,-0.12831623,-0.126401484,-0.127513938,-0.123368617,-0.118609097,-0.14118773,-0.131853769,-0.131822684,-0.129987974,-0.129806821,-0.130063321,Person_01
,5,ECG_ECG_6,8.64544973,4.345992341,2.328079604,-2.146258683,6.446584646,18.59674571,-1.548966003,1.180640681,-0.678998029,1.333003778,0.641740698,0.189851452,-0.059967223,0.575260036,4.444731401,3.743606223,1.813176561,-0.409646579,5.525234337,8.651781969,4.039817748,2.447223721,0.375099788,3.34787554,1.300669578,0.868620766,0.036196066,0.859811524,1.04889989,1.554613517,0.426190729,1.222398506,2.687366053,1.647822526,1.973281892,0.142886141,1.604414254,2.09097667,0.554101518,1.201172938,-0.198437312,1.328112226,0.780688949,0.753792048,0.374682945,0.493920042,1.51465188,1.063902262,1.175357378,0.515922487,0.979206096,1.227319405,0.905182719,1.140435972,0.288182982,1.175492788,0.316452978,1.163968728,0.676207907,0.620045563,0.722610208,0.334776188,0.841007447,0.688736828,0.313373823,0.571405462,0.223809332,0.875836446,0.546520193,0.135545269,0.331540675,0.187039499,0.558325022,0.570097763,-0.0622113,0.30205421,0.088354615,0.583555309,0.278331811,0.031395268,0.217777722,0.225843178,0.309325161,0.130919956,0.00208082,0.167237917,0.054354009,0.166839394,-0.049364938,0.066015192,-0.047048392,0.027813267,-0.102383462,0.023764637,-0.123317421,0.008115108,-0.114094382,-0.070161288,-0.155057903,-0.05075132,-0.149232654,-0.083733174,-0.184978743,-0.06664276,-0.175066128,-0.074022794,-0.189110009,-0.092285661,-0.183514453,-0.085130833,-0.18811205,-0.086505633,-0.190457822,-0.082640641,-0.188385115,-0.082021113,-0.18822751,-0.080524051,-0.187110019,-0.078344978,-0.18651241,-0.076261299,-0.185979596,-0.074048883,-0.185437231,-0.071332146,-0.184726011,-0.069623896,-0.183716461,-0.066770893,-0.183585969,-0.065929075,-0.181992284,-0.058814529,-0.183433239,-0.058473833,-0.181333111,-0.054849893,-0.181256348,-0.049223136,-0.179555204,-0.048736337,-0.182243886,-0.046407001,-0.178960985,-0.039125653,-0.18813703,-0.038917711,-0.178379843,-0.027742252,-0.17262656,-0.025365618,-0.18236713,-0.0239091,-0.179294779,-0.009847687,-0.18980439,-0.016904676,-0.183212041,0.000298517,-0.185234136,0.00148531,-0.18894398,0.005313592,-0.18739217,0.013956397,-0.187458641,0.012980894,-0.195328608,0.034592751,-0.187642534,0.040841385,-0.203304297,0.055636325,-0.188039616,0.06871358,-0.201206519,0.075895194,-0.214527892,0.108877103,-0.218263902,0.114278186,-0.232785115,0.165423833,-0.22498883,0.171427486,-0.245341054,0.212691911,-0.260646655,0.273043102,-0.281606173,0.351950758,-0.301273549,0.457259858,-0.344111011,0.646620645,-0.42836817,1.003138814,-0.584225327,1.993713033,-1.116939874,14.89989593,2.797821671,-3.049743577,0.461151681,-1.454510341,0.188767261,-0.988437598,0.09331059,-0.769276197,0.029784481,-0.627931128,-0.000850359,-0.5379296,-0.009386839,-0.485527383,-0.043590842,-0.439681948,-0.051028643,-0.404530597,-0.065253306,-0.381776458,-0.068532382,-0.356073069,-0.070264898,-0.337431662,-0.078853318,-0.317970054,-0.082071563,-0.29524011,-0.090395431,-0.28633851,-0.102740332,-0.28470961,-0.097912497,-0.276510235,-0.106283929,-0.266845336,-0.110866125,-0.257938106,-0.110055073,-0.246432756,-0.111611993,-0.245355286,-0.105657675,-0.240339217,-0.109076049,-0.233330626,-0.110967175,-0.218219205,-0.103870821,-0.220585388,-0.116187003,-0.225841169,-0.106481813,-0.220660741,-0.116095498,-0.219268819,-0.109570697,-0.216767405,-0.121998164,-0.210479029,-0.11240715,-0.215489572,-0.116698742,-0.201460299,-0.116471738,-0.207763223,-0.111885076,-0.200674444,-0.112112632,-0.197584261,-0.130659597,-0.193476505,-0.123039751,-0.183720647,-0.133658961,-0.201212771,-0.122924295,-0.186074721,-0.122917263,-0.185977364,-0.133355447,-0.188737498,-0.128673208,-0.194075824,-0.132408405,-0.189326274,-0.131289949,-0.191148067,-0.131346339,-0.191809376,-0.135779461,-0.180826858,-0.127323968,-0.189242003,-0.129401711,-0.185292425,-0.130354697,-0.175083827,-0.132016073,-0.180118231,-0.127846604,-0.179667536,-0.134936147,-0.181448679,-0.137670382,-0.17896741,-0.132893872,-0.178081671,-0.133753054,-0.180799979,-0.135667414,-0.179401641,-0.134678007,-0.172519723,-0.129024255,-0.168018687,-0.140247777,-0.172788865,-0.139069401,-0.176430022,-0.138860138,-0.179094821,-0.13501059,-0.171489634,-0.141380819,-0.168834901,-0.138706608,-0.174597433,-0.141178338,-0.167005649,-0.143964886,-0.177009499,-0.140705539,-0.170679687,-0.140015062,-0.168851041,-0.137822018,-0.173884904,-0.139895277,-0.165821777,-0.136058422,-0.165136057,-0.133270827,-0.166500306,-0.137249917,-0.169169193,-0.138188054,-0.166547166,-0.13609625,-0.171922396,-0.135980388,-0.168793219,-0.133620438,-0.165002759,-0.14818806,-0.168925957,-0.139136263,-0.168899579,-0.144070789,-0.163276369,-0.140956807,-0.16916754,-0.143620855,-0.167381638,-0.1442247,-0.16852572,-0.139791145,-0.16471401,-0.143277822,-0.162532552,-0.141238373,-0.165112644,-0.143547377,-0.163177991,-0.13571756,-0.161638575,-0.144117767,-0.165731085,-0.143917031,-0.161250023,-0.144855513,-0.162792016,-0.139674165,-0.165510692,-0.141889185,-0.164300722,-0.143446882,-0.15843293,-0.139363237,-0.16350842,-0.144504066,-0.163981616,-0.143643182,-0.162644066,-0.142822499,-0.162053413,-0.142043217,-0.158683894,-0.144291506,-0.162275501,-0.142976025,-0.16106225,-0.14538348,-0.163756359,-0.142711628,-0.157479641,-0.143018636,-0.162294538,-0.144875148,-0.162213405,-0.144609587,-0.162044971,-0.144768016,-0.160510248,-0.1444162,-0.161955369,-0.144745996,-0.158971328,-0.145096744,-0.159925036,-0.142558028,-0.160923504,-0.14372818,-0.152770963,-0.143507016,-0.159966705,-0.146742347,-0.161773887,-0.143792817,-0.158276908,-0.138355581,-0.158150426,-0.144961537,-0.162404596,-0.145148447,-0.15873147,-0.146381598,-0.156433804,-0.141699764,-0.156499024,-0.145474142,-0.158893066,-0.142493501,-0.164773709,-0.144784404,-0.16168532,-0.145372327,-0.160159268,-0.146470839,-0.158828485,-0.146023708,-0.15840964,-0.144616397,-0.160640877,-0.146945461,-0.16096078,-0.145600211,-0.158945868,-0.14839017,-0.155851447,-0.143636737,-0.159184889,-0.144992321,-0.159147161,-0.146780816,-0.153488888,-0.141003225,-0.15851218,-0.145422495,-0.157691041,-0.140638298,-0.160430737,-0.144076249,-0.159338407,-0.145753176,-0.160172582,-0.145997777,-0.155456334,-0.146023826,-0.157335518,-0.146832129,-0.155857523,-0.146887198,-0.15955785,-0.147802792,-0.159493834,-0.146574475,-0.1590669,-0.147656503,-0.156379246,-0.148507905,-0.159251476,-0.148595835,-0.156998156,-0.146168105,-0.16005006,-0.14817218,-0.156006593,-0.14605842,-0.159762295,-0.149007117,-0.157686044,-0.147532228,-0.155364352,-0.145046698,-0.156888432,-0.147899339,-0.158466554,-0.147002729,-0.157085032,-0.146860015,-0.156886567,-0.147935546,-0.160162826,-0.147853749,-0.157301435,-0.148352503,-0.157261562,-0.146977973,-0.15673124,-0.147713376,-0.157963324,-0.147097015,-0.157063689,-0.148627726,-0.156273648,-0.14711523,-0.157152627,-0.148610266,-0.158749164,-0.148438955,-0.156769258,-0.147570458,-0.15772191,-0.148014414,-0.154867724,-0.147018951,-0.157100197,-0.146823424,-0.155963222,-0.147994868,-0.15441917,-0.148983004,-0.154949965,-0.146910583,-0.153765849,-0.145526577,-0.157383334,-0.148111954,-0.15679215,-0.1485921,-0.155842562,-0.148308539,-0.157270902,-0.149734122,-0.157008893,-0.149063027,-0.156282651,-0.148914724,-0.155785345,-0.146947088,-0.156592345,-0.147926151,-0.157229018,-0.148568606,-0.155511167,-0.148757476,-0.155281939,-0.147104443,-0.156600498,-0.149831897,-0.157152319,-0.147907193,-0.155987008,-0.146849343,-0.156267871,-0.149112356,-0.155229727,-0.148322916,-0.154741716,-0.147373183,-0.154349376,-0.148537683,-0.154254909,-0.149080067,-0.153922833,-0.147416628,-0.154269759,-0.141403528,-0.153535246,-0.154185816,-0.154084961,-0.150781545,-0.154923961,-0.150650822,-0.153342502,-0.150327196,-0.151184903,-0.147305743,-0.151694008,-0.148380416,-0.139861324,-0.134112019,-0.170168935,-0.1499373,-0.160224674,-0.150148036,-0.158372013,-0.150365632,-0.156065233,-0.14896345,-0.157033415,-0.1494705,-0.156520902,-0.150808206,-0.156356414,-0.150764052,-0.156783436,-0.150542288,-0.156548815,-0.149803697,-0.156299652,-0.149296185,-0.155884689,-0.150360608,-0.155423481,-0.147918297,-0.155724175,-0.14933652,-0.153523273,-0.149267282,-0.15560532,-0.150348177,-0.154827336,-0.149432084,-0.154539391,-0.148990284,-0.153899955,-0.149158761,-0.155604567,-0.150531967,-0.154829028,-0.148844915,-0.154268007,-0.148666143,-0.156247045,-0.149277841,-0.152952222,-0.148173497,-0.156746317,-0.149188377,-0.153509517,-0.150791887,-0.156262953,-0.148927787,-0.154248655,-0.149389697,-0.154936763,-0.150437977,-0.153232351,-0.150806966,-0.154356029,-0.15055864,-0.153794301,-0.149720734,-0.154962932,-0.150262691,-0.154106451,-0.149505275,-0.155023859,-0.149926332,-0.154511462,-0.151336585,-0.155191675,-0.150088319,-0.154775274,-0.14988573,-0.154580851,-0.150954091,-0.154125073,-0.149692342,-0.154463124,-0.14967311,-0.153083361,-0.150655095,-0.155357207,-0.150689645,-0.154414331,-0.149960565,-0.154752711,-0.15000232,-0.153465315,-0.150575257,-0.152826599,-0.148996145,-0.154971656,-0.150052591,-0.1537915,-0.15004142,-0.154675101,-0.150409258,-0.15357657,-0.150579284,-0.153861341,-0.149520732,-0.154738656,-0.150694253,-0.154119271,-0.150141084,-0.154097062,-0.150131918,-0.15428186,-0.150549494,-0.153994012,-0.150721691,-0.153813307,-0.149699428,-0.153262136,-0.150850032,-0.153571618,-0.150160397,-0.153653364,-0.150302984,-0.154001793,-0.15044355,-0.152287184,-0.149706425,-0.15262755,-0.150114453,-0.153287446,-0.149376343,-0.155576009,-0.151349688,-0.153796734,-0.15034028,-0.153429254,-0.15083111,-0.153448151,-0.150301181,-0.154627642,-0.149932483,-0.153648859,-0.151184205,-0.15439725,-0.150624973,-0.15365987,-0.151212067,-0.153378441,-0.150809451,-0.153427111,-0.150564612,-0.15313202,-0.149989666,-0.153590325,-0.149644835,-0.151711116,-0.149963872,-0.153329865,-0.150604458,-0.153119015,-0.150288964,-0.153565069,-0.150799156,-0.153085986,-0.151818732,-0.153040252,-0.150641164,-0.153096612,-0.150489481,-0.152976205,-0.1506419,-0.152535038,-0.150452179,-0.153530766,-0.150608601,-0.15326652,-0.150958035,-0.153593472,-0.150014102,-0.153822207,-0.15055502,-0.153234944,-0.150575191,-0.153355712,-0.14973503,-0.151826882,-0.150415835,-0.15332245,-0.150157541,-0.152752211,-0.150011332,-0.152966729,-0.150194386,-0.152279213,-0.150071779,-0.152386904,-0.150235892,-0.154445166,-0.149869146,-0.154262585,-0.15115754,-0.153735691,-0.150797647,-0.152874994,-0.150817778,-0.153300276,-0.150230735,-0.152516845,-0.150978331,-0.152951088,-0.150864711,-0.152403209,-0.15037946,-0.152673364,-0.150049173,-0.152023291,-0.150801731,-0.152908606,-0.150427951,-0.152367766,-0.150902904,-0.152545498,-0.150604389,-0.151306123,-0.150302593,-0.154039324,-0.149812462,-0.153457897,-0.151165126,-0.153358803,-0.150809033,-0.152785234,-0.150926448,-0.152535232,-0.151052659,-0.152609078,-0.150582109,-0.15329863,-0.15030969,-0.151961579,-0.150398173,-0.152931434,-0.150229825,-0.151917492,-0.151251524,-0.152194528,-0.150536393,-0.152340032,-0.150935644,-0.152014289,-0.149509758,-0.153041035,-0.150738917,-0.153074705,-0.151426862,-0.152752869,-0.150801741,-0.151996682,-0.151023912,-0.152782799,-0.150839218,-0.152890625,-0.150486017,-0.152368948,-0.150294657,-0.151961631,-0.150919447,-0.151996833,-0.150664487,-0.152802147,-0.150650505,-0.151864278,-0.150838351,-0.151895422,-0.150403384,-0.151977792,-0.149587771,-0.152264947,-0.151318397,-0.152130203,-0.150518388,-0.152957892,-0.150471778,-0.151804968,-0.150179778,-0.151419314,-0.150469586,-0.152507067,-0.151076559,-0.152123711,-0.151585505,-0.151785523,-0.150299986,-0.152281871,-0.151082639,-0.151788242,-0.150416518,-0.152099817,-0.150754959,-0.15194851,-0.150147004,-0.152098647,-0.150811363,-0.151317422,-0.150809192,-0.151331959,-0.150767462,-0.152053482,-0.15028601,-0.152026709,-0.150906773,-0.151668501,-0.150897316,-0.1513113,-0.150556249,-0.151853735,-0.150557607,-0.151510247,-0.150408222,-0.151945641,-0.151076888,-0.152216208,-0.150743332,-0.151995298,-0.150679915,-0.151801168,-0.150507661,-0.15103706,-0.150983043,-0.151753448,-0.150300123,-0.15075451,-0.151049627,-0.151509269,-0.150806169,-0.151693479,-0.15027945,-0.151370919,-0.15038629,-0.150646987,-0.151756977,-0.151829324,-0.150907098,-0.151757234,-0.151105195,-0.151526363,-0.150435246,-0.15133283,-0.150874607,-0.150961264,-0.150568298,-0.150863039,-0.150666858,-0.151504213,-0.150041562,-0.150938705,-0.150632385,-0.150780369,-0.149970903,-0.149910028,-0.150868195,-0.150761007,-0.150515875,-0.151047051,-0.150143941,-0.151793217,-0.150395343,-0.15131975,-0.150061593,-0.151150227,-0.149907434,-0.150997482,-0.149137426,-0.150830009,-0.149711312,-0.150901753,-0.150029567,-0.150930774,-0.149726015,-0.150608226,-0.150415971,-0.150825362,-0.149364479,-0.150423762,-0.148719583,-0.149657385,-0.147227427,-0.14970308,-0.146169352,-0.149273437,-0.141317536,-0.139217008,-0.167532879,-0.153788324,-0.154669318,-0.152381715,-0.152477604,-0.151587772,Person_01
,6,ECG_ECG_7,28.80019092,7.88863951,0.055249867,0.316978592,1.411601961,6.827483937,-0.141701102,0.367117869,-0.213019145,0.537648143,0.54937779,0.272002656,-0.160539008,0.425274111,0.689926017,2.372820078,0.36003219,0.375196025,0.646162652,1.343523894,2.601855922,0.594653872,0.429629322,0.155917851,0.307630776,0.317871521,0.031881346,0.071517467,-0.058976135,0.425478959,0.646878168,0.528604921,0.349670921,0.203235559,0.646677936,0.823689891,0.344818773,0.266869319,0.092576179,0.362848086,0.281390635,0.076737492,0.071559892,0.051600173,0.203426033,0.215262955,0.074158546,0.170612812,0.231045507,0.26576996,0.317875326,0.10269015,0.301530278,0.383613509,0.167595089,0.276207911,0.017057886,0.270515743,0.182012436,0.195937782,0.107645015,0.167853227,0.177860681,0.200039607,0.13857984,0.094497663,0.132810059,0.108819494,0.167795152,0.084786258,0.064399336,0.083995288,0.011212564,0.109574322,0.041135238,0.08764248,0.003936763,0.056821407,-0.010194352,0.07056595,0.013695284,0.004121701,0.022970199,-0.004453477,0.016567391,0.023031759,-0.069133017,0.026528799,-0.056494626,0.02636405,-0.04671538,-0.039981107,-0.043496913,-0.039585723,-0.043809226,-0.046664138,-0.078287803,-0.034477496,-0.08579385,-0.040738441,-0.096421536,-0.051437001,-0.088201379,-0.052576737,-0.096891607,-0.055052403,-0.098621305,-0.053809286,-0.097992323,-0.055131425,-0.099093615,-0.054013824,-0.099486586,-0.054143134,-0.099337462,-0.053248863,-0.09917571,-0.05223247,-0.099198316,-0.051343968,-0.099186061,-0.050438561,-0.099204755,-0.049520919,-0.09923081,-0.048450622,-0.09931101,-0.047580118,-0.099469795,-0.046611322,-0.099177692,-0.045257831,-0.099221833,-0.044129762,-0.099454978,-0.043221602,-0.09980544,-0.040831835,-0.09914952,-0.0390606,-0.099517121,-0.039496807,-0.099983523,-0.037652604,-0.102122017,-0.034875211,-0.100961911,-0.033341359,-0.100895329,-0.034278494,-0.101577418,-0.030172868,-0.099834569,-0.026489129,-0.102640321,-0.026734645,-0.101838241,-0.021663687,-0.103254957,-0.022430692,-0.102827486,-0.018181041,-0.105521416,-0.017358827,-0.10978044,-0.013952225,-0.108247391,-0.009024772,-0.110425958,-0.003951636,-0.112225939,-0.002815178,-0.113668327,0.003012259,-0.115123695,0.006872513,-0.115468542,0.020207391,-0.123231057,0.023243664,-0.123370218,0.03295426,-0.126999281,0.045667078,-0.138122418,0.061788304,-0.141789943,0.078224473,-0.153525543,0.101984916,-0.166524016,0.135170092,-0.182086598,0.184842887,-0.210232349,0.262522405,-0.255120578,0.417686872,-0.355525286,0.820451095,-0.700296859,4.851642041,2.004684033,-1.453884782,0.31562823,-0.681002725,0.140973685,-0.461766604,0.072223139,-0.361637698,0.033851004,-0.302577775,0.010855962,-0.261306892,-0.003279912,-0.231441544,-0.015011616,-0.215117233,-0.02059297,-0.194366009,-0.02520828,-0.184626571,-0.030257436,-0.172742457,-0.036695635,-0.163184206,-0.042268571,-0.157668336,-0.043624657,-0.1518722,-0.041823376,-0.142940952,-0.047850431,-0.140505164,-0.049542107,-0.137568573,-0.052548353,-0.134934465,-0.053428846,-0.128652376,-0.052633793,-0.128426293,-0.054034543,-0.126103237,-0.050810503,-0.119279034,-0.0559689,-0.120059239,-0.057899673,-0.11969749,-0.061446985,-0.114926163,-0.059797442,-0.113030707,-0.063044948,-0.112202043,-0.05945242,-0.111118174,-0.059804255,-0.109706643,-0.063365721,-0.109331413,-0.063906854,-0.104706433,-0.064540958,-0.108362075,-0.064536939,-0.106692664,-0.063103885,-0.106801921,-0.063559235,-0.098494952,-0.062366192,-0.101800166,-0.061866141,-0.10175299,-0.065125737,-0.100549371,-0.064909787,-0.101685502,-0.07042583,-0.099544004,-0.067442259,-0.097758134,-0.066661296,-0.102538995,-0.07045498,-0.098008611,-0.066807327,-0.095411951,-0.06613562,-0.097483233,-0.070237565,-0.094880794,-0.068248288,-0.098723153,-0.065097745,-0.094055426,-0.069998538,-0.093766734,-0.069978013,-0.095877424,-0.06691444,-0.091170889,-0.074081007,-0.094401757,-0.068799543,-0.09589885,-0.069336515,-0.091305087,-0.069472294,-0.088495693,-0.067216658,-0.093893984,-0.069876972,-0.089680272,-0.074140078,-0.09365125,-0.070358593,-0.090840085,-0.073143572,-0.090451132,-0.072138347,-0.091324572,-0.072478256,-0.086006125,-0.069267926,-0.09136311,-0.070619259,-0.090185415,-0.072530952,-0.088412257,-0.075359439,-0.088857333,-0.074100792,-0.091231409,-0.075801641,-0.090643643,-0.074782302,-0.09053583,-0.07326719,-0.088957384,-0.074075785,-0.090297362,-0.074146379,-0.090347187,-0.074504018,-0.085858259,-0.07496461,-0.088425156,-0.072532129,-0.089663498,-0.069405765,-0.091216523,-0.073886859,-0.088901435,-0.076777523,-0.089474323,-0.076214884,-0.089364867,-0.075781795,-0.088039402,-0.073016389,-0.088087978,-0.070516573,-0.088889296,-0.075944746,-0.090553864,-0.077050136,-0.088243403,-0.075305145,-0.089388178,-0.075027037,-0.087537091,-0.074631321,-0.087545541,-0.074764033,-0.087170218,-0.076598551,-0.086862379,-0.077130205,-0.087599647,-0.076323469,-0.087150937,-0.075516308,-0.086671164,-0.077440378,-0.08589213,-0.075966637,-0.083568502,-0.076468113,-0.085472085,-0.078129092,-0.087342568,-0.075872315,-0.087125891,-0.076493557,-0.0847535,-0.076960149,-0.085861089,-0.077116586,-0.086905987,-0.075632343,-0.087257661,-0.077441162,-0.082387836,-0.074012719,-0.090145294,-0.077333406,-0.088080337,-0.075102053,-0.0870008,-0.078406883,-0.085995273,-0.077392479,-0.08310692,-0.077899933,-0.084274564,-0.07210249,-0.086126151,-0.076206992,-0.086943798,-0.077729597,-0.086166907,-0.076056691,-0.085205135,-0.076911988,-0.082440427,-0.07726821,-0.086905345,-0.07848365,-0.082749297,-0.078609316,-0.086183724,-0.075941449,-0.082131027,-0.076892842,-0.085328964,-0.079588375,-0.084601262,-0.075737233,-0.08664391,-0.078409527,-0.084872138,-0.077509217,-0.085180234,-0.078211491,-0.083416946,-0.07631098,-0.084232955,-0.077638601,-0.085091239,-0.07726353,-0.084074992,-0.076809476,-0.084176241,-0.077456727,-0.084555148,-0.077910532,-0.083945016,-0.078308379,-0.084545679,-0.078753591,-0.08440981,-0.077172571,-0.086282346,-0.077884477,-0.085598491,-0.078952024,-0.084687519,-0.078899663,-0.086352899,-0.07850043,-0.083668524,-0.076595288,-0.086070269,-0.07963029,-0.082913637,-0.079105227,-0.085126195,-0.077237355,-0.084706874,-0.079502738,-0.084248495,-0.079920284,-0.085109846,-0.078726343,-0.085192608,-0.079101214,-0.08443858,-0.078539039,-0.084335963,-0.078240194,-0.084663696,-0.081152775,-0.086143332,-0.08015101,-0.084338303,-0.079435401,-0.08311422,-0.081495922,-0.086222731,-0.08060161,-0.084791537,-0.079623218,-0.084793016,-0.080493605,-0.08465348,-0.079697236,-0.084557849,-0.079587494,-0.085514905,-0.078885081,-0.084493066,-0.077520595,-0.085785373,-0.07979631,-0.085127246,-0.079527832,-0.084388368,-0.080182274,-0.084750578,-0.080317212,-0.083248819,-0.080137206,-0.084407015,-0.07858177,-0.083216523,-0.079637822,-0.084325828,-0.080721446,-0.084146086,-0.080011763,-0.083967418,-0.078993301,-0.085139968,-0.080488707,-0.08401396,-0.079730741,-0.085406776,-0.079479989,-0.084231284,-0.080011949,-0.083987407,-0.078583721,-0.083073076,-0.080011368,-0.083586206,-0.08092256,-0.083470995,-0.080324282,-0.0816182,-0.080644332,-0.08473201,-0.080297432,-0.084477945,-0.080458902,-0.084012883,-0.080677279,-0.084636906,-0.079942429,-0.082477189,-0.080258208,-0.084118738,-0.079588679,-0.08351353,-0.080219275,-0.084339711,-0.08009981,-0.084162211,-0.081735372,-0.083283532,-0.081079159,-0.083843336,-0.079891522,-0.085155909,-0.080875167,-0.083628857,-0.078865543,-0.084189157,-0.079928862,-0.084629295,-0.080476526,-0.083511944,-0.080602151,-0.083518287,-0.079064453,-0.082946873,-0.080204781,-0.081418166,-0.078347012,-0.086820657,-0.080415276,-0.0848147,-0.079441383,-0.084905859,-0.079490011,-0.082853154,-0.079191832,-0.082992364,-0.080218485,-0.082969201,-0.079146597,-0.082193697,-0.070313484,-0.087838941,-0.083204376,-0.085462687,-0.080903779,-0.083617881,-0.081524383,-0.084875419,-0.081847296,-0.083738263,-0.080659063,-0.084012831,-0.080118369,-0.085430792,-0.080598454,-0.085780714,-0.081257139,-0.084904869,-0.080446142,-0.083938175,-0.08048581,-0.084489603,-0.079511792,-0.084266118,-0.081274843,-0.084151063,-0.079799353,-0.083768467,-0.081105417,-0.084407856,-0.080236372,-0.083971659,-0.083026134,-0.083417676,-0.082127923,-0.084754826,-0.081719417,-0.084775281,-0.081169845,-0.083902049,-0.081460786,-0.084246967,-0.080017698,-0.083339123,-0.082692101,-0.083886137,-0.081126272,-0.083620787,-0.081875036,-0.084176186,-0.081112707,-0.083181946,-0.080797789,-0.082595561,-0.081388117,-0.083916324,-0.081249684,-0.084021499,-0.081084334,-0.084347952,-0.0815128,-0.083851501,-0.081017703,-0.083840065,-0.082325176,-0.08296131,-0.08178061,-0.082787222,-0.081088027,-0.084183207,-0.081751056,-0.083852514,-0.081746023,-0.083509798,-0.080570867,-0.084951588,-0.081054259,-0.084196513,-0.082555845,-0.083513787,-0.081338101,-0.083951213,-0.081122463,-0.084081022,-0.081200928,-0.084111493,-0.081315904,-0.08369903,-0.080407115,-0.082448772,-0.080843507,-0.083773085,-0.081733812,-0.083410415,-0.080775435,-0.083258129,-0.081362368,-0.083249854,-0.081578823,-0.083550621,-0.081852534,-0.083597408,-0.080057685,-0.08396233,-0.080717124,-0.082185731,-0.082224145,-0.084116183,-0.081764819,-0.082913388,-0.080915259,-0.084527201,-0.081526069,-0.083562734,-0.081535902,-0.083220543,-0.081795553,-0.083427888,-0.079671767,-0.082992977,-0.083165524,-0.082906453,-0.081949042,-0.084168461,-0.081704132,-0.082813998,-0.082199332,-0.083045886,-0.082090996,-0.084025621,-0.082395024,-0.084112325,-0.082663332,-0.083531982,-0.08102805,-0.083635867,-0.082340274,-0.08298742,-0.082373062,-0.083258293,-0.081376445,-0.083385262,-0.081423913,-0.083786717,-0.082393122,-0.083542588,-0.08145886,-0.08348052,-0.082317187,-0.081984794,-0.081213412,-0.08393604,-0.082643119,-0.084499304,-0.081871454,-0.083795365,-0.081915023,-0.083562988,-0.081960841,-0.082805185,-0.082662412,-0.083532275,-0.082104176,-0.083674169,-0.081871144,-0.083741,-0.081531729,-0.083945671,-0.080976989,-0.08247606,-0.08239164,-0.083284642,-0.081752091,-0.083598796,-0.082044355,-0.082762626,-0.081018576,-0.08416537,-0.081872832,-0.083745163,-0.081102421,-0.083030203,-0.082283553,-0.083110581,-0.081708804,-0.083309146,-0.082165038,-0.082049358,-0.08217894,-0.083439314,-0.082014601,-0.083560801,-0.081502718,-0.083716796,-0.081663567,-0.083188264,-0.081585661,-0.083430887,-0.081899767,-0.083405621,-0.080992953,-0.081946261,-0.082992037,-0.084242599,-0.081762634,-0.083094539,-0.082116301,-0.083732002,-0.081403437,-0.082777459,-0.081406854,-0.083058014,-0.081930391,-0.083817943,-0.082341532,-0.083550563,-0.081442052,-0.082746296,-0.083947297,-0.083370209,-0.081835691,-0.083863327,-0.08247325,-0.083124698,-0.082528659,-0.083784299,-0.082311688,-0.083803338,-0.082403255,-0.083067437,-0.082058885,-0.082878288,-0.082079196,-0.083412867,-0.081676269,-0.083594461,-0.082652068,-0.083356139,-0.082113669,-0.083262281,-0.081500018,-0.083387648,-0.081826388,-0.083177591,-0.082256702,-0.083361026,-0.082786521,-0.083112583,-0.082788095,-0.08306483,-0.082429833,-0.082817142,-0.081788203,-0.083996288,-0.082044603,-0.083251374,-0.082892244,-0.083880397,-0.08226504,-0.082583584,-0.082820882,-0.083322693,-0.082812268,-0.083060489,-0.082405312,-0.083336804,-0.082119831,-0.083303568,-0.081954696,-0.083142139,-0.082222643,-0.083910932,-0.082556428,-0.083094153,-0.082254272,-0.082969535,-0.082692005,-0.082395425,-0.082420872,-0.083771291,-0.082473899,-0.082805098,-0.08262812,-0.083324488,-0.082403007,-0.083479018,-0.082308495,-0.083331822,-0.082622768,-0.082848804,-0.08247045,-0.082179345,-0.082690527,-0.082536622,-0.082322508,-0.084124347,-0.082725561,-0.083673026,-0.082415388,-0.083048417,-0.08220712,-0.083102339,-0.082516633,-0.082960929,-0.082564118,-0.082940824,-0.082034825,-0.082758213,-0.082175565,-0.08324894,-0.082155245,-0.082776417,-0.082388713,-0.083291385,-0.082641324,-0.083072829,-0.082321056,-0.082264516,-0.082248989,-0.083023364,-0.082621167,-0.083166492,-0.082683255,-0.082618478,-0.081791984,-0.082879353,-0.082333948,-0.083202768,-0.082495497,-0.082522179,-0.082888276,-0.08233573,-0.082286593,-0.082404312,-0.082690091,-0.083301993,-0.082853495,-0.08263385,-0.082143723,-0.082674067,-0.082450861,-0.082445762,-0.082242044,-0.082455293,-0.082954125,-0.082827706,-0.082229516,-0.082932053,-0.08251576,-0.082807152,-0.082803659,-0.082704178,-0.082065433,-0.082630106,-0.08246776,-0.082659422,-0.082721646,-0.082637892,-0.082314593,-0.082709741,-0.082059196,-0.082761508,-0.082253454,-0.082340766,-0.081895382,-0.08280337,-0.082350258,-0.082807431,-0.082059484,-0.082847761,-0.081931661,-0.082017938,-0.081713476,-0.082638474,-0.081445431,-0.083133916,-0.082151384,-0.082490245,-0.081505146,-0.08249043,-0.0812252,-0.081822638,-0.081212873,-0.082579274,-0.080698682,-0.08203147,-0.079502863,-0.081510158,-0.073083927,-0.087633283,-0.087549896,-0.083023805,-0.084233695,-0.083030391,-0.083386112,-0.082762644,Person_01
,7,ECG_ECG_8,9.546940695,2.993018039,1.290756314,-0.617621997,4.029512922,20.97935192,0.414802248,0.7809313,-0.381733715,1.606171503,2.200376474,0.604379741,0.0226752,0.476527964,3.197886984,4.61373347,2.075775464,1.506423628,2.257910202,5.34441556,6.427087566,1.544682922,1.754097025,0.96553659,0.673324019,0.828987481,0.067466729,0.476907762,0.242437041,0.846691793,1.814734119,1.126412247,1.461803401,0.881809791,1.312361416,2.325361918,0.846203979,0.846349699,0.309488683,0.889440647,1.05257386,0.25860591,0.267571318,-0.012625219,0.598213423,1.067764344,0.40441637,0.466287728,-0.10885253,1.679984642,1.362119918,0.668773139,0.226853908,0.180250355,1.465411209,0.810676315,0.704936986,0.134244023,0.440776212,1.172506804,0.440063942,0.491213868,0.29345816,0.337769791,0.972993771,0.494408638,0.009000251,0.576518927,0.183558461,0.712710912,0.187134055,-0.012199521,0.386539951,0.223674619,0.370262634,0.117903945,0.00288807,0.315025275,0.279350125,0.351060792,0.119755767,0.040265407,0.010665956,0.354588276,0.115105964,0.118092615,-0.11924536,0.085406967,0.055575896,0.151067275,-0.077491804,-0.05297399,-0.134829832,0.008250162,-0.047058957,-0.052493175,-0.165384569,-0.04558333,-0.138555502,-0.029604244,-0.18125081,-0.070774476,-0.172679148,-0.060910408,-0.177903202,-0.064550287,-0.180625685,-0.069546157,-0.18236102,-0.070543712,-0.187875483,-0.068379362,-0.185745766,-0.067054284,-0.187169324,-0.065203471,-0.186807861,-0.062631516,-0.186135379,-0.0601429,-0.185745624,-0.057617019,-0.185489283,-0.055027536,-0.185305612,-0.052385379,-0.184827782,-0.049459607,-0.184165174,-0.046477796,-0.184449041,-0.04313275,-0.183675976,-0.036933583,-0.183638593,-0.036707227,-0.1844256,-0.030375326,-0.18526817,-0.021601922,-0.180256029,-0.020484257,-0.177825451,-0.008341847,-0.177092725,-0.01872327,-0.176047613,-0.005435556,-0.185066873,0.003147595,-0.176095873,0.000732233,-0.17829824,0.012380304,-0.190473045,0.024097572,-0.165055711,0.021378094,-0.183837232,0.02880871,-0.180533948,0.068031408,-0.185148161,0.042220252,-0.190706821,0.050334501,-0.194302206,0.083219168,-0.19542228,0.090348673,-0.194790583,0.093603151,-0.193567424,0.097767703,-0.20858939,0.122144572,-0.172869099,0.199816659,-0.224044989,0.17001334,-0.234203301,0.214651032,-0.214426988,0.210739839,-0.256070052,0.252138692,-0.253422437,0.319557359,-0.252793455,0.379149012,-0.306258195,0.494318965,-0.366766601,0.584138794,-0.410377209,0.800982558,-0.535319824,1.198360738,-0.750131453,2.306276712,-1.635297672,14.24072862,4.691097459,-3.697440089,0.813750023,-1.669502551,0.387919437,-1.11571271,0.231300197,-0.833389635,0.166115148,-0.665187877,0.132421799,-0.593273576,0.063151807,-0.520060403,0.06853778,-0.442508451,0.033185977,-0.421212066,0.009896083,-0.39733217,0.008752658,-0.367308858,-0.013539754,-0.345039366,-0.040462488,-0.315001356,-0.024496564,-0.302478332,-0.02805977,-0.268042881,-0.025381226,-0.261407141,-0.046284531,-0.236759966,-0.035032892,-0.224099009,-0.020379967,-0.23785328,-0.041547695,-0.243230598,-0.0575007,-0.20205516,-0.046942171,-0.204014528,-0.045669476,-0.225516691,-0.049997523,-0.217157891,-0.06602216,-0.224216808,-0.060781947,-0.190668885,-0.061301151,-0.200895386,-0.080852751,-0.171371369,-0.055103231,-0.183769547,-0.068476204,-0.183905486,-0.085710649,-0.203633727,-0.054769611,-0.193880074,-0.055166519,-0.185967112,-0.050724868,-0.177031253,-0.073579358,-0.157061774,-0.079865215,-0.161187363,-0.045113175,-0.164070705,-0.078999882,-0.1644275,-0.034788699,-0.172237591,-0.050064411,-0.170988424,-0.092374991,-0.174002136,-0.0817611,-0.162022347,-0.11113017,-0.152716101,-0.061457313,-0.163354058,-0.070763514,-0.163642891,-0.077416495,-0.134409597,-0.080318625,-0.174893284,-0.105184375,-0.161145247,-0.078282451,-0.174292114,-0.095779685,-0.158363017,-0.082478743,-0.16495883,-0.032848139,-0.169898006,-0.12463583,-0.151845357,-0.099618723,-0.137936913,-0.081783558,-0.144890247,-0.0773737,-0.172696729,-0.11267811,-0.165603337,-0.102733387,-0.169608636,-0.094770805,-0.156920134,-0.077887677,-0.141550185,-0.100903897,-0.138580366,-0.089716693,-0.153266067,-0.12377866,-0.137077319,-0.095234504,-0.161716555,-0.115279706,-0.156991564,-0.123421958,-0.152317263,-0.077109159,-0.160575366,-0.122217658,-0.151558661,-0.112577611,-0.152254907,-0.103388568,-0.137572549,-0.110187959,-0.137983881,-0.125287209,-0.159741085,-0.100761814,-0.105618973,-0.116284053,-0.165491795,-0.096222658,-0.136493012,-0.095296453,-0.124835849,-0.10863541,-0.077717388,-0.096367255,-0.156962685,-0.088074286,-0.083979515,-0.093081477,-0.146009349,-0.097206127,-0.167633717,-0.100090996,-0.127861893,-0.098066582,-0.112214867,-0.123250574,-0.144242734,-0.091726442,-0.160396419,-0.105277998,-0.145450615,-0.068670082,-0.118261531,-0.115811611,-0.115681319,-0.118910824,-0.154194571,-0.117297965,-0.152661976,-0.103075426,-0.167705125,-0.096707174,-0.103377665,-0.12689966,-0.142166435,-0.117462017,-0.126640001,-0.083145504,-0.125263206,-0.105199806,-0.150656809,-0.133990708,-0.156507151,-0.115525906,-0.138561986,-0.132421914,-0.146548167,-0.091341885,-0.156545416,-0.119133891,-0.127452262,-0.136990367,-0.14234832,-0.134758621,-0.141275546,-0.10378952,-0.145415116,-0.128192592,-0.158723008,-0.104077009,-0.149533854,-0.121734698,-0.166505299,-0.103288851,-0.152814809,-0.118295488,-0.158071912,-0.112450333,-0.141982096,-0.121468926,-0.148427292,-0.099284814,-0.115050114,-0.13205127,-0.143430084,-0.119076707,-0.144520048,-0.110016484,-0.163890806,-0.096094944,-0.12158881,-0.136368762,-0.145161479,-0.142752626,-0.109567068,-0.121817791,-0.150807383,-0.120291752,-0.137655161,-0.12623361,-0.129789499,-0.120958502,-0.152909646,-0.119619371,-0.126490243,-0.131271315,-0.132835162,-0.120395065,-0.158398387,-0.115454346,-0.148296381,-0.150083054,-0.130376886,-0.11778491,-0.140871149,-0.136607179,-0.141996255,-0.11800976,-0.124409632,-0.129991707,-0.127335423,-0.139597275,-0.15280797,-0.125574947,-0.155133444,-0.116953762,-0.155070684,-0.124542733,-0.137507186,-0.135783053,-0.139717935,-0.142682498,-0.14994384,-0.141559772,-0.154499356,-0.145950322,-0.159651524,-0.128098054,-0.152709604,-0.129024581,-0.129915735,-0.133257945,-0.152781713,-0.139653424,-0.156838015,-0.132343305,-0.140105087,-0.126631245,-0.148132888,-0.130777183,-0.157375271,-0.119489301,-0.162501337,-0.130273504,-0.136282402,-0.143305464,-0.156019107,-0.136881842,-0.155281934,-0.121713252,-0.141516243,-0.14645895,-0.148759642,-0.142026899,-0.148444326,-0.129606669,-0.13903373,-0.153984104,-0.149344579,-0.126504901,-0.152430311,-0.151520348,-0.153009366,-0.123632494,-0.152954994,-0.143444716,-0.151547917,-0.156288878,-0.154414617,-0.15015572,-0.147612716,-0.128759729,-0.15654145,-0.146949735,-0.15920889,-0.143964516,-0.147557173,-0.139250245,-0.155186802,-0.130658899,-0.125543704,-0.154227385,-0.159213537,-0.128360064,-0.137230201,-0.153256493,-0.151103837,-0.153093148,-0.141754561,-0.14450129,-0.144780915,-0.154532667,-0.159921953,-0.142586031,-0.157576554,-0.136699355,-0.152372332,-0.13344383,-0.144541565,-0.142175345,-0.135046392,-0.152225083,-0.15221827,-0.147635721,-0.152436011,-0.143935824,-0.150848979,-0.136586364,-0.137882801,-0.132895898,-0.170365599,-0.135644868,-0.156888557,-0.152625452,-0.145462919,-0.127917605,-0.15106109,-0.152400687,-0.147857689,-0.136941235,-0.148315633,-0.136590671,-0.160399221,-0.151366719,-0.147217849,-0.143598689,-0.160104603,-0.149257278,-0.148229129,-0.124065769,-0.159511698,-0.140897746,-0.162514134,-0.141084609,-0.157462645,-0.147884962,-0.160229379,-0.141215074,-0.159555186,-0.149977006,-0.154838427,-0.157397388,-0.148863916,-0.152020541,-0.152040409,-0.137769274,-0.163656128,-0.148921992,-0.159363917,-0.148115107,-0.153110818,-0.129839827,-0.157506123,-0.156416815,-0.158474043,-0.146808688,-0.157230929,-0.134710677,-0.154132298,-0.155592559,-0.144662495,-0.14109677,-0.15275751,-0.15224131,-0.146334352,-0.13691808,-0.142318526,-0.152301594,-0.160430328,-0.157470996,-0.160029816,-0.154812538,-0.163516815,-0.149832472,-0.152650381,-0.15632582,-0.154190924,-0.146372376,-0.145260632,-0.15025945,-0.155659552,-0.152348479,-0.160311623,-0.143467791,-0.156247557,-0.13671152,-0.15475976,-0.148205445,-0.151261207,-0.145443185,-0.166642607,-0.155850858,-0.154164799,-0.14902691,-0.154576487,-0.152163173,-0.156054072,-0.156241147,-0.161678733,-0.145655028,-0.152378985,-0.144355178,-0.156381117,-0.142244136,-0.153997059,-0.147109502,-0.160584875,-0.157781669,-0.153824748,-0.157015823,-0.165193546,-0.151576129,-0.162800411,-0.147022656,-0.161465672,-0.154199717,-0.150653408,-0.158864257,-0.159602879,-0.152818072,-0.158858185,-0.146859474,-0.151196856,-0.154761049,-0.164518154,-0.155531886,-0.160682324,-0.154324231,-0.154223329,-0.143840007,-0.161386425,-0.143295309,-0.152680589,-0.159877405,-0.15543808,-0.145834399,-0.152444924,-0.138576941,-0.159645977,-0.154335799,-0.16337535,-0.156893771,-0.157132182,-0.147813546,-0.161372222,-0.160502014,-0.16365088,-0.154370255,-0.155791068,-0.150133447,-0.153544575,-0.144878571,-0.150444707,-0.147709878,-0.151431902,-0.149482202,-0.163082456,-0.153859378,-0.15678706,-0.143220114,-0.152360773,-0.166117197,-0.156554702,-0.153134966,-0.154908308,-0.156708029,-0.157136789,-0.158464676,-0.159174796,-0.15302171,-0.149089328,-0.15621912,-0.162092168,-0.14550026,-0.158129861,-0.152052337,-0.157045551,-0.158604059,-0.16267904,-0.151421835,-0.161032757,-0.15542734,-0.151916493,-0.156244885,-0.161606958,-0.158602288,-0.160069115,-0.156814333,-0.160538535,-0.152955515,-0.1528286,-0.151789785,-0.155975492,-0.15526423,-0.152197205,-0.162727615,-0.158312633,-0.156120559,-0.153945864,-0.153957332,-0.148915366,-0.154212575,-0.166347913,-0.147732882,-0.151595059,-0.153115164,-0.16560935,-0.154570518,-0.154804982,-0.160614095,-0.157673031,-0.157093525,-0.159238914,-0.149530088,-0.157725523,-0.157827346,-0.15449591,-0.155679016,-0.158965741,-0.152420233,-0.151082202,-0.15404733,-0.163134148,-0.151564111,-0.157990482,-0.154800699,-0.163393471,-0.153237574,-0.157144663,-0.155304438,-0.168641687,-0.157106421,-0.157781804,-0.15606168,-0.154593987,-0.154442199,-0.165054734,-0.156547213,-0.16210211,-0.152833556,-0.157233551,-0.152736872,-0.160101984,-0.148147374,-0.158239392,-0.149833065,-0.162602969,-0.152103558,-0.161850342,-0.157015218,-0.156436891,-0.157202735,-0.163973279,-0.15185477,-0.160105815,-0.157989803,-0.157156602,-0.158234963,-0.156968814,-0.159722913,-0.163400464,-0.156792513,-0.15561052,-0.153303085,-0.155209544,-0.157578534,-0.160259928,-0.155762048,-0.15521671,-0.14995725,-0.161407964,-0.152151647,-0.1602497,-0.157277591,-0.157330584,-0.144027812,-0.159289308,-0.15499875,-0.153595291,-0.157259873,-0.155796945,-0.158077655,-0.154496988,-0.154441488,-0.158351502,-0.151891296,-0.164863457,-0.149117822,-0.157674768,-0.158220176,-0.155734048,-0.159850865,-0.155560441,-0.158073138,-0.154165502,-0.15439851,-0.157830695,-0.158454074,-0.157232326,-0.151624166,-0.160463183,-0.151738176,-0.165676178,-0.156201519,-0.163847326,-0.155789131,-0.162042402,-0.154631084,-0.161403504,-0.158300214,-0.162010243,-0.15433411,-0.155278252,-0.158069691,-0.155257281,-0.15282671,-0.15854022,-0.156843958,-0.156203842,-0.15625865,-0.163570277,-0.155970646,-0.157005943,-0.152205177,-0.160356271,-0.154486068,-0.153372113,-0.158462557,-0.159254163,-0.153946068,-0.162150532,-0.160227113,-0.158589977,-0.158197349,-0.158503442,-0.155320269,-0.156114904,-0.157219202,-0.161930946,-0.151942845,-0.162240238,-0.153590463,-0.158149613,-0.155853451,-0.159466718,-0.153713947,-0.153546623,-0.156484658,-0.159287048,-0.156678178,-0.160523463,-0.160130774,-0.158298265,-0.158723743,-0.160432683,-0.156758911,-0.159641681,-0.155188353,-0.153919202,-0.155192286,-0.160008339,-0.15150595,-0.15662222,-0.155777985,-0.157824572,-0.154372114,-0.158303822,-0.152451257,-0.157707499,-0.155444449,-0.156391028,-0.153848428,-0.158766024,-0.154510458,-0.159260511,-0.155990216,-0.158685449,-0.154813651,-0.156852248,-0.157830189,-0.160719998,-0.15977379,-0.158374921,-0.155256661,-0.155633333,-0.153423169,-0.154147898,-0.155885828,-0.15833798,-0.157463773,-0.158179722,-0.155303094,-0.154661336,-0.157161196,-0.155610279,-0.153388481,-0.160441764,-0.160397362,-0.155697652,-0.157523887,-0.154114831,-0.153620736,-0.155649768,-0.151549692,-0.162460515,-0.161097968,-0.157792366,-0.157860686,-0.157477889,-0.155243396,-0.156096468,-0.153428929,-0.156506574,-0.154520102,-0.154815334,-0.157081203,-0.157905036,-0.154762931,-0.15949586,-0.155512295,-0.156225307,-0.151327962,-0.156448915,-0.156966211,-0.153537372,-0.155756982,-0.157733462,-0.154002251,-0.158166447,-0.15598186,-0.158875051,-0.154190848,-0.15672742,-0.148349183,-0.161106398,-0.15357544,-0.154602834,-0.148693721,-0.154895714,-0.139179981,-0.160615139,-0.170909234,-0.160451345,-0.158944161,-0.15453095,-0.159844107,-0.155613605,Person_01
,8,ECG_ECG_9,27.50583714,5.756197702,0.560308692,0.422237646,1.608205785,12.16634982,1.581543328,-0.068263774,0.071080566,0.349828669,0.682752795,0.42884929,0.087810058,0.110542182,1.47547822,1.854776393,2.206126427,1.367761248,0.580289714,2.6206672,2.539290991,1.28004236,2.518620532,0.391291047,0.566873076,0.392899272,0.012704519,0.393644267,0.223253297,0.329902714,0.61937435,0.373585392,1.185114514,1.144700083,0.903452587,0.659572986,0.470761414,0.501825296,0.773454145,0.640632334,0.240035582,0.245904206,0.202416632,0.267875957,0.488564123,0.372459994,0.070306696,0.400420548,0.298226929,0.817259247,0.783014124,0.195365986,0.601368126,0.194557966,0.622946561,0.463335104,0.5097844,0.393588936,0.270614506,0.377097648,0.326935606,0.637886829,0.216838387,0.267729435,0.269478734,0.208025304,0.634610672,0.178627291,0.169603468,0.167802276,0.048009605,0.383370546,0.23378653,0.077121856,0.046522842,0.041090378,0.173585167,0.226930324,0.078451846,0.0225513,0.054162224,0.088840856,0.177485918,0.142748609,0.032950595,0.055170325,0.081363284,0.024903479,0.054500504,0.005336329,-0.07567609,-0.0371698,-0.077499013,-0.02861567,-0.067741596,-0.075240317,-0.069450838,-0.085289366,-0.074328458,-0.088029019,-0.085754139,-0.101716894,-0.098295863,-0.10295088,-0.105726771,-0.097699696,-0.10879452,-0.107957353,-0.111841932,-0.107097276,-0.109639802,-0.108659077,-0.110060024,-0.108357844,-0.109231941,-0.107341482,-0.108567977,-0.106296033,-0.107842519,-0.105399311,-0.107160237,-0.104546949,-0.106525083,-0.10367042,-0.10573677,-0.102836765,-0.10487312,-0.101418339,-0.104753461,-0.100472106,-0.103020095,-0.099322012,-0.102496659,-0.098570237,-0.101048811,-0.09817224,-0.099157743,-0.094418597,-0.096348783,-0.092933861,-0.100126762,-0.093036577,-0.094005727,-0.084205713,-0.095817801,-0.080886431,-0.095224493,-0.081209752,-0.084918394,-0.064744763,-0.075005765,-0.088595528,-0.084184772,-0.076970319,-0.071232886,-0.08014961,-0.090986898,-0.073615937,-0.082731331,-0.066205441,-0.069935205,-0.086649043,-0.078797013,-0.085065174,-0.065269742,-0.043432117,-0.087102647,-0.0555647,-0.041036348,-0.068234586,-0.050262092,-0.064453724,-0.062764716,-0.021664147,-0.046254742,-0.052195749,-0.061405862,-0.033363899,-0.061914717,-0.022351425,-0.022061146,-0.071140704,-0.050637186,-0.046605001,-0.087734369,-0.072036618,-0.101855305,-0.040475115,-0.043924944,-0.036972498,-0.065485377,-0.067884422,-0.049960084,-0.034460038,-0.090492784,-0.05318662,-0.103922195,0.004856808,-0.073374891,-0.007480259,-0.103061118,0.347711097,0.083392867,-0.168487477,-0.068164706,-0.10406359,-0.071855944,-0.083606531,-0.060084075,-0.093356416,-0.050546013,-0.101115311,-0.077761742,-0.105099554,-0.076358416,-0.075713864,-0.054372992,-0.073811674,-0.062755592,-0.102598046,-0.07970627,-0.101498139,-0.087914413,-0.096609679,-0.070459633,-0.088445019,-0.087461009,-0.083058245,-0.075364316,-0.087151798,-0.071680462,-0.074152087,-0.0749753,-0.099700077,-0.069423088,-0.081816014,-0.082322704,-0.085469338,-0.052244982,-0.068488667,-0.087019998,-0.072344935,-0.084557662,-0.071574465,-0.088852068,-0.069171944,-0.068688803,-0.102075889,-0.075867522,-0.095184463,-0.041693325,-0.079545097,-0.092274872,-0.090597095,-0.072156309,-0.085770993,-0.066883802,-0.071987176,-0.060860259,-0.048460093,-0.078815574,-0.06749433,-0.07467055,-0.080779594,-0.059926178,-0.069556684,-0.052847992,-0.072121439,-0.072385455,-0.057475696,-0.069699108,-0.069008565,-0.082178935,-0.08321689,-0.074760534,-0.0711299,-0.066625499,-0.053309852,-0.076628559,-0.084540271,-0.054440219,-0.06178903,-0.094311781,-0.062847613,-0.091539834,-0.079325356,-0.09320874,-0.06878385,-0.07593407,-0.067201874,-0.034285841,-0.046507128,-0.060410297,-0.028911797,-0.074038466,-0.084188591,-0.102976795,-0.048022284,-0.073719852,-0.078858135,-0.092821003,-0.078532598,-0.084956647,-0.091445024,-0.074323791,-0.084130072,-0.066564625,-0.083510645,-0.069917049,-0.08870016,-0.098840153,-0.079213256,-0.084015956,-0.07274928,-0.094058916,-0.078083458,-0.064993453,-0.073979596,-0.070542078,-0.088464658,-0.093423918,-0.061390785,-0.080610939,-0.105837025,-0.086902424,-0.084155058,-0.081119205,-0.096514789,-0.089452197,-0.092413533,-0.099307326,-0.085031506,-0.085945664,-0.072443285,-0.079552539,-0.066351241,-0.081316666,-0.069904337,-0.060806764,-0.011128416,-0.042095318,-0.044080005,-0.020793846,-0.078525245,-0.092958923,-0.040710238,-0.065708757,-0.129389774,-0.094354756,-0.092803868,-0.075578574,-0.078702638,-0.071058615,-0.051505427,-0.101065174,-0.10955004,-0.106623583,-0.105608992,-0.104868534,-0.105062412,-0.094972771,-0.105460179,-0.096760571,-0.102579536,-0.084556609,-0.052856731,-0.102776539,-0.110222944,-0.095823362,-0.092791147,-0.09269693,-0.098091017,-0.091646715,-0.080695816,-0.094371526,-0.088358511,-0.077869185,-0.100017655,-0.060631856,-0.084926665,-0.101214921,-0.101007607,-0.104544544,-0.094036524,-0.091756269,-0.096741168,-0.089068471,-0.072344479,-0.07360125,-0.087495445,-0.094918482,-0.095582574,-0.090709252,-0.09722305,-0.102577578,-0.088501712,-0.098205952,-0.094456932,-0.089021315,-0.092804722,-0.066137819,-0.089085599,-0.087424882,-0.096857399,-0.073799585,-0.062181022,-0.089490021,-0.107213266,-0.081626318,-0.111397042,-0.107177043,-0.108939837,-0.090482776,-0.105706421,-0.080544225,-0.086220633,-0.076771188,-0.106131343,-0.107303806,-0.091970206,-0.087750365,-0.077421447,-0.082275195,-0.089913166,-0.099801154,-0.098815343,-0.095927588,-0.087780982,-0.077668884,-0.084317407,-0.108599602,-0.106242345,-0.103947118,-0.104060247,-0.09353417,-0.101809168,-0.089909502,-0.075887423,-0.072067391,-0.099708093,-0.085482725,-0.094798146,-0.105957649,-0.106364293,-0.112369835,-0.105094925,-0.105468868,-0.094848896,-0.098842364,-0.097370163,-0.075882995,-0.095291335,-0.092893062,-0.087850435,-0.095761662,-0.100520902,-0.099411025,-0.098011886,-0.093155677,-0.119825106,-0.093914181,-0.103865571,-0.098924947,-0.104939909,-0.107749932,-0.109743221,-0.112555902,-0.100137844,-0.091146933,-0.117390618,-0.098219504,-0.104383026,-0.103551378,-0.099882244,-0.098289172,-0.091675316,-0.098022631,-0.086536165,-0.096828762,-0.100158882,-0.095259414,-0.095932276,-0.084778697,-0.097581637,-0.109251048,-0.077548089,-0.089608214,-0.102942319,-0.090026255,-0.074314142,-0.101541447,-0.109826564,-0.095558982,-0.097270367,-0.101401941,-0.104582515,-0.106286121,-0.107291351,-0.105621751,-0.112073753,-0.113257735,-0.111861873,-0.109375847,-0.105678662,-0.104090875,-0.099703263,-0.107664454,-0.111454042,-0.115616918,-0.10344224,-0.10780002,-0.111336479,-0.107395331,-0.103443381,-0.102623264,-0.112497079,-0.10106975,-0.107272397,-0.098500748,-0.085561045,-0.100621977,-0.093947902,-0.103306635,-0.102638595,-0.094605628,-0.108954926,-0.106439341,-0.113007384,-0.105314262,-0.11162662,-0.108591398,-0.108011928,-0.084359112,-0.098347888,-0.080550854,-0.07815538,-0.107866116,-0.10372365,-0.11570837,-0.114017662,-0.116767745,-0.119845163,-0.118994774,-0.111372098,-0.114868432,-0.10890646,-0.105077108,-0.111873058,-0.103238978,-0.101800293,-0.116455651,-0.104719756,-0.10517033,-0.092419505,-0.096869164,-0.106138493,-0.093812114,-0.089406135,-0.095270464,-0.115670457,-0.111685386,-0.115843545,-0.119846277,-0.115103734,-0.112922998,-0.11194715,-0.117867221,-0.111309746,-0.112985825,-0.111607111,-0.10925792,-0.108823039,-0.115604286,-0.102804784,-0.106960916,-0.103186375,-0.116433391,-0.114455457,-0.098145361,-0.113222794,-0.117163684,-0.107332323,-0.106583405,-0.112205042,-0.116706712,-0.104338316,-0.10744959,-0.12196596,-0.108859987,-0.114951012,-0.114082661,-0.122016103,-0.111332733,-0.119301389,-0.111926513,-0.11433215,-0.109547325,-0.115113361,-0.100461651,-0.106138194,-0.113281139,-0.114414795,-0.110262464,-0.103067668,-0.110282448,-0.120414144,-0.1183168,-0.112690299,-0.114041868,-0.10713772,-0.10947309,-0.100097002,-0.113697153,-0.119046931,-0.112285574,-0.110335878,-0.113543529,-0.106192346,-0.105530832,-0.11093071,-0.10610956,-0.103932774,-0.104797844,-0.106168047,-0.111279849,-0.110231338,-0.11014329,-0.109891386,-0.114350718,-0.102578498,-0.105928032,-0.109967484,-0.098758401,-0.092132704,-0.110630829,-0.116378615,-0.115014053,-0.113124696,-0.113080371,-0.118377189,-0.114086968,-0.116736838,-0.111216007,-0.109113236,-0.108323546,-0.105130646,-0.111289563,-0.107635995,-0.107548829,-0.109310333,-0.116016711,-0.115977838,-0.119938884,-0.112788614,-0.113140092,-0.115775117,-0.112924984,-0.105966385,-0.109680184,-0.111526299,-0.110543576,-0.10638463,-0.106319469,-0.116848354,-0.109605089,-0.110780612,-0.118014719,-0.116476197,-0.11503101,-0.113958076,-0.115592733,-0.111100008,-0.118861743,-0.112241022,-0.117191696,-0.105401567,-0.105635299,-0.113967279,-0.107965847,-0.123539423,-0.114128814,-0.115530815,-0.111779597,-0.110518312,-0.115461714,-0.11520917,-0.111159746,-0.12002055,-0.113549672,-0.12122049,-0.11216054,-0.114114047,-0.116153269,-0.117872292,-0.117147835,-0.115254308,-0.115948863,-0.113125889,-0.115157644,-0.115656117,-0.108182957,-0.112309128,-0.116316144,-0.110098684,-0.108964742,-0.119836699,-0.113572756,-0.116071471,-0.115798021,-0.116946819,-0.112856478,-0.113539994,-0.116029081,-0.110006636,-0.114721282,-0.113994152,-0.114998155,-0.113986965,-0.110485078,-0.110962698,-0.111558609,-0.109640442,-0.111482623,-0.114470382,-0.106648716,-0.108836208,-0.119591074,-0.117416746,-0.112209769,-0.116478786,-0.116672454,-0.112063385,-0.111678876,-0.112998386,-0.108982403,-0.110393084,-0.106464865,-0.113377648,-0.111195337,-0.114384874,-0.113111197,-0.10832857,-0.114072643,-0.113786535,-0.108829022,-0.113140457,-0.116639079,-0.115347774,-0.113956693,-0.115175413,-0.110142008,-0.110424428,-0.113474299,-0.116076618,-0.11319624,-0.112286421,-0.118902528,-0.110764638,-0.120185391,-0.122092776,-0.119108581,-0.115681445,-0.115392815,-0.114335722,-0.11577765,-0.114585536,-0.109807511,-0.116226213,-0.115696942,-0.117529285,-0.119334174,-0.118338513,-0.115556987,-0.117790664,-0.11980484,-0.117947782,-0.117628395,-0.117673064,-0.114974277,-0.115338388,-0.115778615,-0.115355603,-0.115331108,-0.1136742,-0.116096391,-0.113914188,-0.113600616,-0.114550524,-0.115429144,-0.114741769,-0.117276547,-0.112544926,-0.114456607,-0.114171707,-0.118159539,-0.116461724,-0.116957462,-0.113769463,-0.113905589,-0.115135856,-0.116037541,-0.114412264,-0.114605978,-0.115803462,-0.115718962,-0.116793042,-0.116060871,-0.115571783,-0.115942191,-0.11760232,-0.112163737,-0.11686307,-0.114449206,-0.114706561,-0.11432091,-0.112511008,-0.117181442,-0.116436032,-0.114216225,-0.112010583,-0.112989907,-0.110429002,-0.115953803,-0.11701547,-0.114136652,-0.113063708,-0.11286481,-0.114296377,-0.112547294,-0.109841335,-0.112917341,-0.107856476,-0.110005096,-0.112707805,-0.110626956,-0.114096481,-0.116546526,-0.112183058,-0.113881636,-0.120692246,-0.116045916,-0.117982486,-0.116600379,-0.114543973,-0.112206784,-0.112764504,-0.118468473,-0.114840696,-0.114100865,-0.116733671,-0.111980856,-0.113630373,-0.110414522,-0.112837989,-0.116677433,-0.11753063,-0.117410677,-0.119472115,-0.11763287,-0.117768011,-0.119141478,-0.116797215,-0.114892533,-0.11501603,-0.116644007,-0.116683904,-0.112030994,-0.114996799,-0.117798135,-0.115638163,-0.115351351,-0.113008995,-0.116308303,-0.110378609,-0.114672385,-0.116078937,-0.118210257,-0.1155077,-0.114303406,-0.114486777,-0.116411474,-0.115198565,-0.114551313,-0.115038708,-0.114007721,-0.114409855,-0.11723145,-0.118206965,-0.115081488,-0.119202072,-0.114268188,-0.118392509,-0.118962907,-0.118031558,-0.117020938,-0.116037848,-0.116470384,-0.116252415,-0.116426053,-0.115547997,-0.114697554,-0.1139648,-0.115846923,-0.11557874,-0.1144678,-0.113922992,-0.113006679,-0.114901732,-0.114466817,-0.116697655,-0.112418718,-0.11516645,-0.113150131,-0.114296993,-0.115697312,-0.116444969,-0.116116113,-0.114744707,-0.112693391,-0.116160975,-0.113459451,-0.116881897,-0.112277326,-0.11486042,-0.115262361,-0.115868742,-0.115741976,-0.114992884,-0.114775675,-0.114872208,-0.113155547,-0.11340612,-0.112909646,-0.113906217,-0.113187063,-0.111342564,-0.113866004,-0.112023442,-0.111509196,-0.111599021,-0.113636025,-0.111942144,-0.117255474,-0.118486437,-0.119155574,-0.117564249,-0.115639156,-0.116647972,-0.113495195,-0.116077986,-0.117828247,-0.117559319,-0.117412239,-0.114536158,-0.117908871,-0.11611102,-0.114960116,-0.115455276,-0.116149025,-0.114692315,-0.113601231,-0.114950287,-0.115988353,-0.115133801,-0.114219728,-0.114404244,-0.115073558,-0.115228003,-0.114548908,-0.115734292,-0.114522054,-0.114564163,-0.11362001,-0.112517841,-0.114598735,-0.114352671,-0.114286482,-0.114767024,-0.112964743,-0.112568356,-0.1133902,-0.114269282,-0.11245805,-0.112280396,-0.114351627,-0.11458456,-0.114530526,-0.113608161,-0.112976,-0.114893766,-0.112521627,-0.112565442,-0.103804391,-0.117102627,-0.121143299,-0.113547763,-0.115741881,-0.118698809,-0.115892176,-0.115100125,Person_01
